theta,phi,z,dtheta,dphi,dz,ecg,eda
3.448296944257913,0.6760373325262354,6.4248703846447945,0.0,0.0,0.0,0.15770444531719277,0.17748465803903946
3.465981507343656,0.6742801426015321,6.400784444024187,0.01768456308574285,-0.0017571899247033067,-0.024085940620607923,0.15770444531719277,0.17748465803903946
3.483666070429399,0.6725229526768288,6.3766985034035795,0.01768456308574285,-0.0017571899247033067,-0.024085940620607923,0.15770444531719277,0.17748465803903946
3.501350633515142,0.6707657627521255,6.352612562782972,0.01768456308574285,-0.0017571899247033067,-0.024085940620607923,0.15770444531719277,0.17748465803903946
3.519035196600885,0.6690085728274222,6.328526622162364,0.01768456308574285,-0.0017571899247033067,-0.024085940620607923,0.15770444531719277,0.17748465803903946
3.536719759686628,0.6672513829027189,6.304440681541757,0.01768456308574285,-0.0017571899247033067,-0.024085940620607923,0.15770444531719277,0.17748465803903946
3.554404322772371,0.6654941929780156,6.280354740921149,0.01768456308574285,-0.0017571899247033067,-0.024085940620607923,0.15770444531719277,0.17748465803903946
3.572088885858114,0.6637370030533123,6.256268800300542,0.01768456308574285,-0.0017571899247033067,-0.024085940620607923,0.15071155765925368,0.17748465803903946
3.589773448943857,0.661979813128609,6.232182859679934,0.01768456308574285,-0.0017571899247033067,-0.024085940620607923,0.1625117106584384,0.17748465803903946
3.6074580120296,0.6602226232039057,6.208096919059327,0.01768456308574285,-0.0017571899247033067,-0.024085940620607923,0.1625117106584384,0.17748465803903946
3.6251425751153428,0.6584654332792024,6.184010978438719,0.01768456308574285,-0.0017571899247033067,-0.024085940620607923,0.1625117106584384,0.17748465803903946
3.6428271382010857,0.6567082433544991,6.159925037818112,0.01768456308574285,-0.0017571899247033067,-0.024085940620607923,0.17244437256437006,0.17748465803903946
3.6605117012868287,0.6549510534297958,6.135839097197504,0.01768456308574285,-0.0017571899247033067,-0.024085940620607923,0.16509884490171334,0.17748465803903946
3.6781962643725716,0.6531938635050925,6.1117531565768966,0.01768456308574285,-0.0017571899247033067,-0.024085940620607923,0.17393509887806582,0.17748465803903946
3.6958808274583146,0.6514366735803891,6.087667215956289,0.01768456308574285,-0.0017571899247033067,-0.024085940620607923,0.17393509887806582,0.17748465803903946
3.7135653905440575,0.6496794836556858,6.0635812753356815,0.01768456308574285,-0.0017571899247033067,-0.024085940620607923,0.1787963310990866,0.17748465803903946
3.7312499536298005,0.6479222937309825,6.039495334715074,0.01768456308574285,-0.0017571899247033067,-0.024085940620607923,0.16901605751859705,0.18080538379165398
3.7489345167155435,0.6461651038062792,6.015409394094466,0.01768456308574285,-0.0017571899247033067,-0.024085940620607923,0.16901605751859705,0.18417085287383816
3.7666190798012864,0.6444079138815759,5.991323453473859,0.01768456308574285,-0.0017571899247033067,-0.024085940620607923,0.16901605751859705,0.18758136470783068
3.7843036428870294,0.6426507239568726,5.967237512853251,0.01768456308574285,-0.0017571899247033067,-0.024085940620607923,0.16901605751859705,0.1910372187158702
3.8019882059727723,0.6408935340321693,5.943151572232644,0.01768456308574285,-0.0017571899247033067,-0.024085940620607923,0.16901605751859705,0.1945387143201954
3.8196727690585153,0.639136344107466,5.919065631612036,0.01768456308574285,-0.0017571899247033067,-0.024085940620607923,0.17816820979993392,0.19808615094304488
3.8373573321442582,0.6373791541827627,5.894979690991429,0.01768456308574285,-0.0017571899247033067,-0.024085940620607923,0.17816820979993392,0.20167982800665737
3.855041895230001,0.6356219642580594,5.870893750370821,0.01768456308574285,-0.0017571899247033067,-0.024085940620607923,0.17816820979993392,0.2053200449332715
3.872726458315744,0.6338647743333561,5.846807809750214,0.01768456308574285,-0.0017571899247033067,-0.024085940620607923,0.1725061999983444,0.20900710114512588
3.890411021401487,0.6321075844086528,5.822721869129606,0.01768456308574285,-0.0017571899247033067,-0.024085940620607923,0.17847106548515285,0.2127412960644592
3.90809558448723,0.6303503944839495,5.798635928508999,0.01768456308574285,-0.0017571899247033067,-0.024085940620607923,0.17847106548515285,0.21652292911351015
3.925780147572973,0.6285932045592462,5.774549987888391,0.01768456308574285,-0.0017571899247033067,-0.024085940620607923,0.17847106548515285,0.2203522997145174
3.943464710658716,0.6268360146345429,5.7504640472677835,0.01768456308574285,-0.0017571899247033067,-0.024085940620607923,0.17847106548515285,0.22422970728971953
3.961149273744459,0.6250788247098396,5.726378106647176,0.01768456308574285,-0.0017571899247033067,-0.024085940620607923,0.18346454721940458,0.22815545126135525
3.978833836830202,0.6233216347851362,5.702292166026568,0.01768456308574285,-0.0017571899247033067,-0.024085940620607923,0.18346454721940458,0.23212983105166315
3.996518399915945,0.6215644448604329,5.678206225405961,0.01768456308574285,-0.0017571899247033067,-0.024085940620607923,0.18646022728357284,0.23615314608288207
4.014202963001687,0.6198072549357296,5.654120284785353,0.01768456308574285,-0.0017571899247033067,-0.024085940620607923,0.17859315772891052,0.24022569577725048
4.03188752608743,0.6180500650110263,5.630034344164746,0.01768456308574285,-0.0017571899247033067,-0.024085940620607923,0.18745738013772115,0.24434777955700707
4.049572089173172,0.616292875086323,5.605948403544138,0.01768456308574285,-0.0017571899247033067,-0.024085940620607923,0.18745738013772115,0.24851969684439057
4.067256652258915,0.6145356851616197,5.581862462923531,0.01768456308574285,-0.0017571899247033067,-0.024085940620607923,0.18885136188326757,0.2527417470616396
4.084941215344657,0.6127784952369164,5.557776522302923,0.01768456308574285,-0.0017571899247033067,-0.024085940620607923,0.1945259416722773,0.25701422963099285
4.1026257784304,0.6110213053122131,5.533690581682316,0.01768456308574285,-0.0017571899247033067,-0.024085940620607923,0.20167668637813507,0.2613374439746889
4.120310341516142,0.6092641153875098,5.509604641061708,0.01768456308574285,-0.0017571899247033067,-0.024085940620607923,0.20167668637813507,0.26571168951496643
4.137994904601885,0.6075069254628065,5.485518700441101,0.01768456308574285,-0.0017571899247033067,-0.024085940620607923,0.20167668637813507,0.27013726567406415
4.155679467687627,0.6057497355381032,5.461432759820493,0.01768456308574285,-0.0017571899247033067,-0.024085940620607923,0.1974487755816601,0.2746144718742207
4.17336403077337,0.6039925456133999,5.4373468191998855,0.01768456308574285,-0.0017571899247033067,-0.024085940620607923,0.20066288612493838,0.2791436075376747
4.191048593859112,0.6022353556886966,5.413260878579278,0.01768456308574285,-0.0017571899247033067,-0.024085940620607923,0.20066288612493838,0.2837249720866649
4.208733156944855,0.6004781657639933,5.38917493795867,0.01768456308574285,-0.0017571899247033067,-0.024085940620607923,0.20557716715172358,0.2883588649434298
4.2264177200305975,0.59872097583929,5.365088997338063,0.01768456308574285,-0.0017571899247033067,-0.024085940620607923,0.20243373772309645,0.29304558553020826
4.24410228311634,0.5969637859145867,5.341003056717455,0.01768456308574285,-0.0017571899247033067,-0.024085940620607923,0.20243373772309645,0.29778543326923873
4.2617868462020825,0.5952065959898833,5.316917116096848,0.01768456308574285,-0.0017571899247033067,-0.024085940620607923,0.2134665327070092,0.30257870758276006
4.279471409287825,0.59344940606518,5.29283117547624,0.01768456308574285,-0.0017571899247033067,-0.024085940620607923,0.2134665327070092,0.30742570789301077
4.2971559723735675,0.5916922161404767,5.268745234855633,0.01768456308574285,-0.0017571899247033067,-0.024085940620607923,0.2134665327070092,0.31232673362222957
4.31484053545931,0.5899350262157734,5.244659294235025,0.01768456308574285,-0.0017571899247033067,-0.024085940620607923,0.2134665327070092,0.31728208419265513
4.3325250985450525,0.5881778362910701,5.220573353614418,0.01768456308574285,-0.0017571899247033067,-0.024085940620607923,0.20923402189090143,0.3222920590265261
4.350209661630795,0.5864206463663668,5.19648741299381,0.01768456308574285,-0.0017571899247033067,-0.024085940620607923,0.20923402189090143,0.32735695754608113
4.3678942247165375,0.5846634564416635,5.172401472373203,0.01768456308574285,-0.0017571899247033067,-0.024085940620607923,0.2064592548936863,0.3324770791735589
4.38557878780228,0.5829062665169602,5.148315531752595,0.01768456308574285,-0.0017571899247033067,-0.024085940620607923,0.20741934426627917,0.33765272333119795
4.403263350888023,0.5811490765922569,5.1242295911319875,0.01768456308574285,-0.0017571899247033067,-0.024085940620607923,0.22089065130551508,0.3428841894412371
4.420947913973765,0.5793918866675536,5.10014365051138,0.01768456308574285,-0.0017571899247033067,-0.024085940620607923,0.22318987323384984,0.34817177692591494
4.438632477059508,0.5776346967428503,5.076057709890772,0.01768456308574285,-0.0017571899247033067,-0.024085940620607923,0.22561398400322286,0.3535157852074701
4.45631704014525,0.575877506818147,5.051971769270165,0.01768456308574285,-0.0017571899247033067,-0.024085940620607923,0.22561398400322286,0.3589165137081413
4.474001603230993,0.5741203168934437,5.027885828649557,0.01768456308574285,-0.0017571899247033067,-0.024085940620607923,0.21800497752226794,0.3643742618501672
4.491686166316735,0.5723631269687404,5.00379988802895,0.01768456308574285,-0.0017571899247033067,-0.024085940620607923,0.210012678799523,0.3698893290557864
4.509370729402478,0.5706059370440371,4.979713947408342,0.01768456308574285,-0.0017571899247033067,-0.024085940620607923,0.22068401911580607,0.3754620147472376
4.52705529248822,0.5688487471193338,4.955628006787735,0.01768456308574285,-0.0017571899247033067,-0.024085940620607923,0.22068401911580607,0.3810926183467594
4.544739855573963,0.5670915571946304,4.931542066167127,0.01768456308574285,-0.0017571899247033067,-0.024085940620607923,0.23981523458456547,0.38678143927659053
4.562424418659705,0.5653343672699271,4.90745612554652,0.01768456308574285,-0.0017571899247033067,-0.024085940620607923,0.23981523458456547,0.3925287769589696
4.580108981745448,0.5635771773452238,4.883370184925912,0.01768456308574285,-0.0017571899247033067,-0.024085940620607923,0.23981523458456547,0.3983349308161353
4.59779354483119,0.5618199874205205,4.859284244305305,0.01768456308574285,-0.0017571899247033067,-0.024085940620607923,0.2340676609022635,0.40420020027032627
4.615478107916933,0.5600627974958172,4.835198303684697,0.01768456308574285,-0.0017571899247033067,-0.024085940620607923,0.24203295094374358,0.41012488474378117
4.678680341635172,0.5643780444646952,4.885570334728281,0.06320223371823894,0.004315246968877989,0.0503720310435838,0.24203295094374358,0.4161092836587387
4.741882575353411,0.5686932914335732,4.935942365771865,0.06320223371823894,0.004315246968877989,0.0503720310435838,0.25488504580033655,0.4221536964374375
4.80508480907165,0.5730085384024511,4.986314396815449,0.06320223371823894,0.004315246968877989,0.0503720310435838,0.25488504580033655,0.42825842250211615
4.8682870427898886,0.5773237853713291,5.036686427859033,0.06320223371823894,0.004315246968877989,0.0503720310435838,0.25854508143291244,0.4344237612750133
4.9314892765081275,0.5816390323402071,5.087058458902617,0.06320223371823894,0.004315246968877989,0.0503720310435838,0.25854508143291244,0.4406500121783678
4.9946915102263665,0.5859542793090851,5.137430489946201,0.06320223371823894,0.004315246968877989,0.0503720310435838,0.24902807640863833,0.44693747463441813
5.0578937439446054,0.590269526277963,5.187802520989785,0.06320223371823894,0.004315246968877989,0.0503720310435838,0.24902807640863833,0.45328644806540297
5.121095977662844,0.594584773246841,5.238174552033369,0.06320223371823894,0.004315246968877989,0.0503720310435838,0.24902807640863833,0.4596972318935611
5.184298211381083,0.598900020215719,5.288546583076953,0.06320223371823894,0.004315246968877989,0.0503720310435838,0.24902807640863833,0.46617012554113096
5.247500445099322,0.603215267184597,5.338918614120537,0.06320223371823894,0.004315246968877989,0.0503720310435838,0.24902807640863833,0.4727054284303515
5.310702678817561,0.6075305141534749,5.389290645164121,0.06320223371823894,0.004315246968877989,0.0503720310435838,0.24902807640863833,0.47930343998346103
5.3739049125358,0.6118457611223529,5.439662676207705,0.06320223371823894,0.004315246968877989,0.0503720310435838,0.24902807640863833,0.4859644596226985
5.437107146254039,0.6161610080912309,5.490034707251289,0.06320223371823894,0.004315246968877989,0.0503720310435838,0.24902807640863833,0.4926887867703025
5.500309379972278,0.6204762550601088,5.540406738294873,0.06320223371823894,0.004315246968877989,0.0503720310435838,0.24902807640863833,0.4994767208485116
5.563511613690517,0.6247915020289868,5.590778769338457,0.06320223371823894,0.004315246968877989,0.0503720310435838,0.24902807640863833,0.5063285612795645
5.626713847408756,0.6291067489978648,5.641150800382041,0.06320223371823894,0.004315246968877989,0.0503720310435838,0.24902807640863833,0.5063285612795645
5.689916081126995,0.6334219959667428,5.691522831425625,0.06320223371823894,0.004315246968877989,0.0503720310435838,0.25221963032678724,0.5063285612795645
5.753118314845234,0.6377372429356207,5.741894862469209,0.06320223371823894,0.004315246968877989,0.0503720310435838,0.24523133313852566,0.5063285612795645
5.816320548563473,0.6420524899044987,5.792266893512793,0.06320223371823894,0.004315246968877989,0.0503720310435838,0.24059069320267043,0.5063285612795645
5.879522782281712,0.6463677368733767,5.842638924556377,0.06320223371823894,0.004315246968877989,0.0503720310435838,0.23011092758053056,0.5063285612795645
5.942725015999951,0.6506829838422546,5.893010955599961,0.06320223371823894,0.004315246968877989,0.0503720310435838,0.2316262652320694,0.5063285612795645
6.00592724971819,0.6549982308111326,5.943382986643545,0.06320223371823894,0.004315246968877989,0.0503720310435838,0.23840966543858552,0.5063285612795645
6.069129483436429,0.6593134777800106,5.993755017687129,0.06320223371823894,0.004315246968877989,0.0503720310435838,0.2429915381364339,0.5063285612795645
6.132331717154668,0.6636287247488886,6.044127048730713,0.06320223371823894,0.004315246968877989,0.0503720310435838,0.23879610739187326,0.5063285612795645
6.195533950872907,0.6679439717177665,6.094499079774297,0.06320223371823894,0.004315246968877989,0.0503720310435838,0.2334261212309534,0.5063285612795645
6.258736184591146,0.6722592186866445,6.144871110817881,0.06320223371823894,0.004315246968877989,0.0503720310435838,0.23135793619482978,0.5063285612795645
6.321938418309385,0.6765744656555225,6.195243141861465,0.06320223371823894,0.004315246968877989,0.0503720310435838,0.23687168785869653,0.5063285612795645
6.385140652027624,0.6808897126244005,6.245615172905049,0.06320223371823894,0.004315246968877989,0.0503720310435838,0.23822766789497132,0.5063285612795645
6.448342885745863,0.6852049595932784,6.295987203948633,0.06320223371823894,0.004315246968877989,0.0503720310435838,0.2399320331299522,0.5063285612795645
6.511545119464102,0.6895202065621564,6.346359234992217,0.06320223371823894,0.004315246968877989,0.0503720310435838,0.24405549961932135,0.5063285612795645
6.574747353182341,0.6938354535310344,6.396731266035801,0.06320223371823894,0.004315246968877989,0.0503720310435838,0.24127321087375084,0.5063285612795645
6.63794958690058,0.6981507004999123,6.447103297079385,0.06320223371823894,0.004315246968877989,0.0503720310435838,0.24171690894336337,0.5063285612795645
6.7011518206188185,0.7024659474687903,6.497475328122969,0.06320223371823894,0.004315246968877989,0.0503720310435838,0.2398673747029954,0.5063285612795645
6.7643540543370575,0.7067811944376683,6.547847359166553,0.06320223371823894,0.004315246968877989,0.0503720310435838,0.2344833601615779,0.5063285612795645
6.8275562880552965,0.7110964414065463,6.598219390210137,0.06320223371823894,0.004315246968877989,0.0503720310435838,0.23430202385787716,0.5063285612795645
6.890758521773535,0.7154116883754242,6.648591421253721,0.06320223371823894,0.004315246968877989,0.0503720310435838,0.23252299979878882,0.5063285612795645
6.953960755491774,0.7197269353443022,6.698963452297305,0.06320223371823894,0.004315246968877989,0.0503720310435838,0.2273005751212106,0.5063285612795645
7.017162989210013,0.7240421823131802,6.749335483340889,0.06320223371823894,0.004315246968877989,0.0503720310435838,0.22640214334195174,0.5063285612795645
7.080365222928252,0.7283574292820582,6.799707514384473,0.06320223371823894,0.004315246968877989,0.0503720310435838,0.22836271086342938,0.5063285612795645
7.143567456646491,0.7326726762509361,6.850079545428057,0.06320223371823894,0.004315246968877989,0.0503720310435838,0.22705573278775806,0.5063285612795645
7.20676969036473,0.7369879232198141,6.900451576471641,0.06320223371823894,0.004315246968877989,0.0503720310435838,0.2222820799236198,0.5063285612795645
7.269971924082969,0.7413031701886921,6.950823607515225,0.06320223371823894,0.004315246968877989,0.0503720310435838,0.21696960395656095,0.5063285612795645
7.333174157801208,0.74561841715757,7.001195638558809,0.06320223371823894,0.004315246968877989,0.0503720310435838,0.2108956422293398,0.5063285612795645
7.396376391519447,0.749933664126448,7.0515676696023935,0.06320223371823894,0.004315246968877989,0.0503720310435838,0.2105263436838761,0.5063285612795645
7.459578625237686,0.754248911095326,7.1019397006459775,0.06320223371823894,0.004315246968877989,0.0503720310435838,0.21747667543650598,0.5063285612795645
7.522780858955925,0.758564158064204,7.1523117316895615,0.06320223371823894,0.004315246968877989,0.0503720310435838,0.2251580724014074,0.5063285612795645
7.585983092674164,0.7628794050330819,7.2026837627331455,0.06320223371823894,0.004315246968877989,0.0503720310435838,0.2344927899226068,0.5063285612795645
7.649185326392403,0.7671946520019599,7.2530557937767295,0.06320223371823894,0.004315246968877989,0.0503720310435838,0.2305050156865685,0.5063285612795645
7.712387560110642,0.7715098989708379,7.3034278248203135,0.06320223371823894,0.004315246968877989,0.0503720310435838,0.2294690619706127,0.5063285612795645
7.775589793828881,0.7758251459397159,7.3537998558638975,0.06320223371823894,0.004315246968877989,0.0503720310435838,0.22799306555396248,0.5063285612795645
7.83879202754712,0.7801403929085938,7.4041718869074815,0.06320223371823894,0.004315246968877989,0.0503720310435838,0.22932776399557706,0.5063285612795645
7.901994261265359,0.7844556398774718,7.4545439179510655,0.06320223371823894,0.004315246968877989,0.0503720310435838,0.233296750358389,0.5063285612795645
7.965196494983598,0.7887708868463498,7.5049159489946495,0.06320223371823894,0.004315246968877989,0.0503720310435838,0.22989902273368784,0.5063285612795645
8.028398728701836,0.7930861338152277,7.5552879800382335,0.06320223371823894,0.004315246968877989,0.0503720310435838,0.21499533420218878,0.5063285612795645
8.091600962420074,0.7974013807841057,7.6056600110818176,0.06320223371823894,0.004315246968877989,0.0503720310435838,0.21777396031095878,0.5063285612795645
8.154803196138312,0.8017166277529837,7.656032042125402,0.06320223371823894,0.004315246968877989,0.0503720310435838,0.21056445338193489,0.5063285612795645
8.21800542985655,0.8060318747218617,7.706404073168986,0.06320223371823894,0.004315246968877989,0.0503720310435838,0.21784699188649287,0.5063285612795645
8.281207663574788,0.8103471216907396,7.75677610421257,0.06320223371823894,0.004315246968877989,0.0503720310435838,0.21296090521648123,0.5063285612795645
8.344409897293026,0.8146623686596176,7.807148135256154,0.06320223371823894,0.004315246968877989,0.0503720310435838,0.2118285416354328,0.5063285612795645
8.407612131011264,0.8189776156284956,7.857520166299738,0.06320223371823894,0.004315246968877989,0.0503720310435838,0.2061317723723827,0.5063285612795645
8.470814364729502,0.8232928625973736,7.907892197343322,0.06320223371823894,0.004315246968877989,0.0503720310435838,0.19979721863159264,0.5063285612795645
8.53401659844774,0.8276081095662515,7.958264228386906,0.06320223371823894,0.004315246968877989,0.0503720310435838,0.1893253850776171,0.5063285612795645
8.597218832165979,0.8319233565351295,8.008636259430489,0.06320223371823894,0.004315246968877989,0.0503720310435838,0.19239662360848697,0.5063285612795645
8.660421065884217,0.8362386035040075,8.059008290474072,0.06320223371823894,0.004315246968877989,0.0503720310435838,0.19253439045943652,0.5063285612795645
8.723623299602455,0.8405538504728854,8.109380321517655,0.06320223371823894,0.004315246968877989,0.0503720310435838,0.19293814162774273,0.5063285612795645
8.786825533320693,0.8448690974417634,8.159752352561238,0.06320223371823894,0.004315246968877989,0.0503720310435838,0.19601034243520177,0.499921517105629
8.850027767038931,0.8491843444106414,8.210124383604821,0.06320223371823894,0.004315246968877989,0.0503720310435838,0.19037387740681688,0.4911662106552351
8.913230000757169,0.8534995913795194,8.260496414648404,0.06320223371823894,0.004315246968877989,0.0503720310435838,0.19123983392087202,0.4804074190534868
8.976432234475407,0.8578148383483973,8.310868445691987,0.06320223371823894,0.004315246968877989,0.0503720310435838,0.18277838787805417,0.4770208226693738
9.039634468193645,0.8621300853172753,8.36124047673557,0.06320223371823894,0.004315246968877989,0.0503720310435838,0.18193823087188973,0.4522857294041887
9.102836701911883,0.8664453322861533,8.411612507779154,0.06320223371823894,0.004315246968877989,0.0503720310435838,0.18432030158665805,0.45495477743863205
9.166038935630121,0.8707605792550313,8.461984538822737,0.06320223371823894,0.004315246968877989,0.0503720310435838,0.18695339684360973,0.44738329718199144
9.22924116934836,0.8750758262239092,8.51235656986632,0.06320223371823894,0.004315246968877989,0.0503720310435838,0.18780092409543786,0.44319816207130974
9.292443403066597,0.8793910731927872,8.562728600909903,0.06320223371823894,0.004315246968877989,0.0503720310435838,0.18705199094466102,0.4431398161786766
9.355645636784836,0.8837063201616652,8.613100631953486,0.06320223371823894,0.004315246968877989,0.0503720310435838,0.18481793208471126,0.4397000862803002
9.418847870503074,0.8880215671305431,8.66347266299707,0.06320223371823894,0.004315246968877989,0.0503720310435838,0.19255929966716614,0.42573114149935204
9.482050104221312,0.8923368140994211,8.713844694040652,0.06320223371823894,0.004315246968877989,0.0503720310435838,0.19384893437083048,0.4184273031852617
9.54525233793955,0.8966520610682991,8.764216725084236,0.06320223371823894,0.004315246968877989,0.0503720310435838,0.19825260075519535,0.42029778966079256
9.608454571657788,0.9009673080371771,8.814588756127819,0.06320223371823894,0.004315246968877989,0.0503720310435838,0.20331554661626086,0.43263913239680496
9.671656805376026,0.905282555006055,8.864960787171402,0.06320223371823894,0.004315246968877989,0.0503720310435838,0.2072944434101533,0.42863336742332037
9.734859039094264,0.909597801974933,8.915332818214985,0.06320223371823894,0.004315246968877989,0.0503720310435838,0.21157393759039833,0.4135623453948385
9.694939975776423,0.9069053485797531,8.8738993946464,-0.03991906331784096,-0.002692453395179896,-0.04143342356858433,0.20540268578853607,0.40142436549043525
9.655020912458582,0.9042128951845733,8.832465971077816,-0.03991906331784096,-0.002692453395179896,-0.04143342356858433,0.20281593788800772,0.4048000647744419
9.615101849140741,0.9015204417893934,8.791032547509232,-0.03991906331784096,-0.002692453395179896,-0.04143342356858433,0.2026552703626811,0.39002055001730723
9.5751827858229,0.8988279883942135,8.749599123940648,-0.03991906331784096,-0.002692453395179896,-0.04143342356858433,0.19614461592598037,0.40092566406782143
9.535263722505059,0.8961355349990336,8.708165700372064,-0.03991906331784096,-0.002692453395179896,-0.04143342356858433,0.19871640185087064,0.3986660759020142
9.495344659187218,0.8934430816038538,8.66673227680348,-0.03991906331784096,-0.002692453395179896,-0.04143342356858433,0.1840133615864469,0.3954835284354651
9.455425595869377,0.8907506282086739,8.625298853234895,-0.03991906331784096,-0.002692453395179896,-0.04143342356858433,0.1859936260444216,0.3749815143236663
9.415506532551536,0.888058174813494,8.58386542966631,-0.03991906331784096,-0.002692453395179896,-0.04143342356858433,0.18520422153153332,0.3652122104170255
9.375587469233695,0.8853657214183142,8.542432006097727,-0.03991906331784096,-0.002692453395179896,-0.04143342356858433,0.18312712375700008,0.3817640776136656
9.335668405915854,0.8826732680231343,8.500998582529142,-0.03991906331784096,-0.002692453395179896,-0.04143342356858433,0.18130805413142403,0.38279381728398687
9.295749342598013,0.8799808146279544,8.459565158960558,-0.03991906331784096,-0.002692453395179896,-0.04143342356858433,0.19007068694657037,0.39580587935043654
9.255830279280172,0.8772883612327745,8.418131735391974,-0.03991906331784096,-0.002692453395179896,-0.04143342356858433,0.19433944556249064,0.3906548332020359
9.21591121596233,0.8745959078375947,8.37669831182339,-0.03991906331784096,-0.002692453395179896,-0.04143342356858433,0.19316945596528992,0.3919675458127783
9.17599215264449,0.8719034544424148,8.335264888254805,-0.03991906331784096,-0.002692453395179896,-0.04143342356858433,0.19442553882998323,0.3875708063199014
9.136073089326649,0.8692110010472349,8.293831464686221,-0.03991906331784096,-0.002692453395179896,-0.04143342356858433,0.19136355012457895,0.3852491302009709
9.096154026008808,0.866518547652055,8.252398041117637,-0.03991906331784096,-0.002692453395179896,-0.04143342356858433,0.18110232040592064,0.39149613483516943
9.056234962690967,0.8638260942568752,8.210964617549052,-0.03991906331784096,-0.002692453395179896,-0.04143342356858433,0.18460092883398307,0.3843291231280311
9.016315899373126,0.8611336408616953,8.169531193980468,-0.03991906331784096,-0.002692453395179896,-0.04143342356858433,0.18018005200175344,0.38605228432877653
8.976396836055285,0.8584411874665154,8.128097770411884,-0.03991906331784096,-0.002692453395179896,-0.04143342356858433,0.17517714517460206,0.3835045365877573
8.936477772737444,0.8557487340713356,8.0866643468433,-0.03991906331784096,-0.002692453395179896,-0.04143342356858433,0.1809475619734565,0.38280196324251525
8.927842024559755,0.8580185101354779,8.124816376197566,-0.00863574817768843,0.002269776064142306,0.038152029354266016,0.17214713579174715,0.37933871133000124
8.919206276382067,0.8602882861996203,8.162968405551833,-0.00863574817768843,0.002269776064142306,0.038152029354266016,0.16995553270629019,0.3937876145939514
8.910570528204378,0.8625580622637626,8.2011204349061,-0.00863574817768843,0.002269776064142306,0.038152029354266016,0.17259874166647216,0.3812330129298765
8.90193478002669,0.864827838327905,8.239272464260367,-0.00863574817768843,0.002269776064142306,0.038152029354266016,0.1761725637829099,0.37337054843136
8.893299031849,0.8670976143920474,8.277424493614634,-0.00863574817768843,0.002269776064142306,0.038152029354266016,0.17766079269865273,0.38021583900806905
8.884663283671312,0.8693673904561897,8.3155765229689,-0.00863574817768843,0.002269776064142306,0.038152029354266016,0.17790704539154376,0.38666949767467534
8.876027535493623,0.8716371665203321,8.353728552323167,-0.00863574817768843,0.002269776064142306,0.038152029354266016,0.17907847969573407,0.3945967333868272
8.867391787315935,0.8739069425844744,8.391880581677434,-0.00863574817768843,0.002269776064142306,0.038152029354266016,0.17991623561282008,0.3787776842553522
8.858756039138246,0.8761767186486168,8.4300326110317,-0.00863574817768843,0.002269776064142306,0.038152029354266016,0.17627963851045467,0.37528496069595446
8.850120290960557,0.8784464947127592,8.468184640385967,-0.00863574817768843,0.002269776064142306,0.038152029354266016,0.17238051288026138,0.37051897703351155
8.841484542782869,0.8807162707769015,8.506336669740234,-0.00863574817768843,0.002269776064142306,0.038152029354266016,0.16204021367799792,0.365613384092099
8.83284879460518,0.8829860468410439,8.5444886990945,-0.00863574817768843,0.002269776064142306,0.038152029354266016,0.15579740673650444,0.3666160750955653
8.824213046427491,0.8852558229051862,8.582640728448768,-0.00863574817768843,0.002269776064142306,0.038152029354266016,0.1653068049786757,0.3694896838190681
8.815577298249803,0.8875255989693286,8.620792757803034,-0.00863574817768843,0.002269776064142306,0.038152029354266016,0.16286396436618317,0.3596940086160733
8.806941550072114,0.889795375033471,8.658944787157301,-0.00863574817768843,0.002269776064142306,0.038152029354266016,0.16028154085633692,0.36383259689583325
8.798305801894426,0.8920651510976133,8.697096816511568,-0.00863574817768843,0.002269776064142306,0.038152029354266016,0.16245386013198698,0.35121839052585113
8.789670053716737,0.8943349271617557,8.735248845865835,-0.00863574817768843,0.002269776064142306,0.038152029354266016,0.15343286202206657,0.3554150124262447
8.781034305539048,0.896604703225898,8.773400875220101,-0.00863574817768843,0.002269776064142306,0.038152029354266016,0.14399169795855754,0.3562108894420337
8.77239855736136,0.8988744792900404,8.811552904574368,-0.00863574817768843,0.002269776064142306,0.038152029354266016,0.1426222925258761,0.37451261724088863
8.763762809183671,0.9011442553541827,8.849704933928635,-0.00863574817768843,0.002269776064142306,0.038152029354266016,0.14875499846256396,0.3885682959367453
8.755127061005982,0.9034140314183251,8.887856963282902,-0.00863574817768843,0.002269776064142306,0.038152029354266016,0.14672761505679754,0.3773274741184289
8.746491312828294,0.9056838074824675,8.926008992637168,-0.00863574817768843,0.002269776064142306,0.038152029354266016,0.15336409762788072,0.38539674661845097
8.737855564650605,0.9079535835466098,8.964161021991435,-0.00863574817768843,0.002269776064142306,0.038152029354266016,0.14537831838652468,0.38662550808341384
8.729219816472916,0.9102233596107522,9.002313051345702,-0.00863574817768843,0.002269776064142306,0.038152029354266016,0.14643004419742514,0.3813107063143158
8.720584068295228,0.9124931356748945,9.040465080699969,-0.00863574817768843,0.002269776064142306,0.038152029354266016,0.14191410753841732,0.37987742231319105
8.71194832011754,0.9147629117390369,9.078617110054235,-0.00863574817768843,0.002269776064142306,0.038152029354266016,0.140003002527315,0.3824068831872169
8.70331257193985,0.9170326878031793,9.116769139408502,-0.00863574817768843,0.002269776064142306,0.038152029354266016,0.14175362021725735,0.3708362259330545
8.694676823762162,0.9193024638673216,9.154921168762769,-0.00863574817768843,0.002269776064142306,0.038152029354266016,0.1417951283847916,0.37788316594392746
8.686041075584473,0.921572239931464,9.193073198117036,-0.00863574817768843,0.002269776064142306,0.038152029354266016,0.12954540905661757,0.3941567330993536
8.677405327406785,0.9238420159956063,9.231225227471302,-0.00863574817768843,0.002269776064142306,0.038152029354266016,0.13596432462967567,0.3851906533759093
8.668769579229096,0.9261117920597487,9.26937725682557,-0.00863574817768843,0.002269776064142306,0.038152029354266016,0.13425081264265282,0.3945709059347419
8.660133831051407,0.928381568123891,9.307529286179836,-0.00863574817768843,0.002269776064142306,0.038152029354266016,0.14018707364025637,0.38550337181119615
8.651498082873719,0.9306513441880334,9.345681315534103,-0.00863574817768843,0.002269776064142306,0.038152029354266016,0.13506973577750575,0.3869566820399184
8.64286233469603,0.9329211202521758,9.38383334488837,-0.00863574817768843,0.002269776064142306,0.038152029354266016,0.13016168714148957,0.3990913795877223
8.634226586518341,0.9351908963163181,9.421985374242636,-0.00863574817768843,0.002269776064142306,0.038152029354266016,0.13368241850432852,0.3943160311482453
8.625590838340653,0.9374606723804605,9.460137403596903,-0.00863574817768843,0.002269776064142306,0.038152029354266016,0.14085348911076057,0.39335516122239145
8.616955090162964,0.9397304484446029,9.49828943295117,-0.00863574817768843,0.002269776064142306,0.038152029354266016,0.1424274202074257,0.4153951013228031
8.608319341985275,0.9420002245087452,9.536441462305437,-0.00863574817768843,0.002269776064142306,0.038152029354266016,0.1422888501505044,0.43192318739132063
8.599683593807587,0.9442700005728876,9.574593491659703,-0.00863574817768843,0.002269776064142306,0.038152029354266016,0.14234076848286,0.42057348753926727
8.591047845629898,0.9465397766370299,9.61274552101397,-0.00863574817768843,0.002269776064142306,0.038152029354266016,0.134599648020384,0.4345229103024882
8.58241209745221,0.9488095527011723,9.650897550368237,-0.00863574817768843,0.002269776064142306,0.038152029354266016,0.13331497838090242,0.4187822454646617
8.573776349274521,0.9510793287653146,9.689049579722504,-0.00863574817768843,0.002269776064142306,0.038152029354266016,0.1350214728378519,0.4114065659314634
8.565140601096832,0.953349104829457,9.72720160907677,-0.00863574817768843,0.002269776064142306,0.038152029354266016,0.13745586697689702,0.40546869645690437
8.556504852919144,0.9556188808935994,9.765353638431037,-0.00863574817768843,0.002269776064142306,0.038152029354266016,0.13317261507281242,0.3817974033819819
8.547869104741455,0.9578886569577417,9.803505667785304,-0.00863574817768843,0.002269776064142306,0.038152029354266016,0.1360993035028662,0.383420357449815
8.539233356563766,0.9601584330218841,9.84165769713957,-0.00863574817768843,0.002269776064142306,0.038152029354266016,0.132930275506406,0.3825582574806928
8.530597608386078,0.9624282090860264,9.879809726493837,-0.00863574817768843,0.002269776064142306,0.038152029354266016,0.1356326239128955,0.37437900130315643
8.521961860208389,0.9646979851501688,9.917961755848104,-0.00863574817768843,0.002269776064142306,0.038152029354266016,0.13631035659208807,0.3568629120564976
8.5133261120307,0.9669677612143112,9.956113785202371,-0.00863574817768843,0.002269776064142306,0.038152029354266016,0.12869659628458296,0.3571069557315795
8.504690363853012,0.9692375372784535,9.994265814556638,-0.00863574817768843,0.002269776064142306,0.038152029354266016,0.13399478229588552,0.3616631267994272
8.46002336461367,0.9606931312962499,9.946080434775405,-0.0446669992393411,-0.00854440598220361,-0.04818537978123299,0.1286123269712775,0.3758287502443101
8.415356365374329,0.9521487253140463,9.897895054994173,-0.0446669992393411,-0.00854440598220361,-0.04818537978123299,0.11894823952428578,0.3756487930526223
8.370689366134988,0.9436043193318426,9.84970967521294,-0.0446669992393411,-0.00854440598220361,-0.04818537978123299,0.1183851952120387,0.3689615421953472
8.326022366895646,0.935059913349639,9.801524295431708,-0.0446669992393411,-0.00854440598220361,-0.04818537978123299,0.1186059383341351,0.3594357805284175
8.281355367656305,0.9265155073674354,9.753338915650476,-0.0446669992393411,-0.00854440598220361,-0.04818537978123299,0.12106578102922648,0.37145301004022635
8.236688368416964,0.9179711013852317,9.705153535869243,-0.0446669992393411,-0.00854440598220361,-0.04818537978123299,0.12751575387856814,0.37185534894422684
8.192021369177622,0.9094266954030281,9.656968156088011,-0.0446669992393411,-0.00854440598220361,-0.04818537978123299,0.13215369326549636,0.35901550808653804
8.14735436993828,0.9008822894208245,9.608782776306779,-0.0446669992393411,-0.00854440598220361,-0.04818537978123299,0.11876820619745987,0.3713346999557832
8.10268737069894,0.8923378834386209,9.560597396525546,-0.0446669992393411,-0.00854440598220361,-0.04818537978123299,0.11265368488457257,0.3655605794506408
8.058020371459598,0.8837934774564172,9.512412016744314,-0.0446669992393411,-0.00854440598220361,-0.04818537978123299,0.11474931498342109,0.37093685842519203
8.013353372220257,0.8752490714742136,9.464226636963081,-0.0446669992393411,-0.00854440598220361,-0.04818537978123299,0.10856091433831319,0.3699940255055595
7.968686372980915,0.86670466549201,9.416041257181849,-0.0446669992393411,-0.00854440598220361,-0.04818537978123299,0.10751008851516347,0.36768760917013676
7.924019373741574,0.8581602595098063,9.367855877400617,-0.0446669992393411,-0.00854440598220361,-0.04818537978123299,0.10509299332205285,0.3666354979106646
7.879352374502233,0.8496158535276027,9.319670497619384,-0.0446669992393411,-0.00854440598220361,-0.04818537978123299,0.11019002407427454,0.35813796144721377
7.834685375262891,0.8410714475453991,9.271485117838152,-0.0446669992393411,-0.00854440598220361,-0.04818537978123299,0.11158310515930743,0.35487596921273745
7.79001837602355,0.8325270415631955,9.22329973805692,-0.0446669992393411,-0.00854440598220361,-0.04818537978123299,0.11267277391149362,0.37088869786038836
7.745351376784209,0.8239826355809918,9.175114358275687,-0.0446669992393411,-0.00854440598220361,-0.04818537978123299,0.11837396008727535,0.3506433856774681
7.700684377544867,0.8154382295987882,9.126928978494455,-0.0446669992393411,-0.00854440598220361,-0.04818537978123299,0.11517299331450144,0.33982253848602817
7.656017378305526,0.8068938236165846,9.078743598713222,-0.0446669992393411,-0.00854440598220361,-0.04818537978123299,0.12692145079213793,0.34544862223871686
7.6113503790661845,0.7983494176343809,9.03055821893199,-0.0446669992393411,-0.00854440598220361,-0.04818537978123299,0.1371676629927191,0.33983660651434644
7.566683379826843,0.7898050116521773,8.982372839150758,-0.0446669992393411,-0.00854440598220361,-0.04818537978123299,0.13725357427866447,0.34234729951837123
7.522016380587502,0.7812606056699737,8.934187459369525,-0.0446669992393411,-0.00854440598220361,-0.04818537978123299,0.13284669360229096,0.3587592045562763
7.47734938134816,0.7727161996877701,8.886002079588293,-0.0446669992393411,-0.00854440598220361,-0.04818537978123299,0.12951388913561662,0.3662109581965845
7.432682382108819,0.7641717937055664,8.83781669980706,-0.0446669992393411,-0.00854440598220361,-0.04818537978123299,0.12610182142928006,0.35304537142663484
7.388015382869478,0.7556273877233628,8.789631320025828,-0.0446669992393411,-0.00854440598220361,-0.04818537978123299,0.12613046985253248,0.34931367124423784
7.343348383630136,0.7470829817411592,8.741445940244596,-0.0446669992393411,-0.00854440598220361,-0.04818537978123299,0.12729886239378085,0.3590469158737259
7.298681384390795,0.7385385757589555,8.693260560463363,-0.0446669992393411,-0.00854440598220361,-0.04818537978123299,0.12653248151899343,0.33904975126659015
7.254014385151454,0.7299941697767519,8.64507518068213,-0.0446669992393411,-0.00854440598220361,-0.04818537978123299,0.1202307039818175,0.3381999971648414
7.209347385912112,0.7214497637945483,8.596889800900898,-0.0446669992393411,-0.00854440598220361,-0.04818537978123299,0.11271801896262285,0.3359945689619472
7.164680386672771,0.7129053578123447,8.548704421119666,-0.0446669992393411,-0.00854440598220361,-0.04818537978123299,0.10911728753616612,0.3349726117974003
7.1200133874334295,0.704360951830141,8.500519041338434,-0.0446669992393411,-0.00854440598220361,-0.04818537978123299,0.10732683763240773,0.33726761084185475
7.075346388194088,0.6958165458479374,8.452333661557201,-0.0446669992393411,-0.00854440598220361,-0.04818537978123299,0.11256149068855796,0.3495817329735657
7.030679388954747,0.6872721398657338,8.404148281775969,-0.0446669992393411,-0.00854440598220361,-0.04818537978123299,0.11866453309934179,0.3656614782282718
6.986012389715405,0.6787277338835301,8.355962901994737,-0.0446669992393411,-0.00854440598220361,-0.04818537978123299,0.11582236853316367,0.3488162653418506
6.941345390476064,0.6701833279013265,8.307777522213504,-0.0446669992393411,-0.00854440598220361,-0.04818537978123299,0.11354219555666574,0.3470437016080185
6.896678391236723,0.6616389219191229,8.259592142432272,-0.0446669992393411,-0.00854440598220361,-0.04818537978123299,0.11470436388553383,0.3435676685915982
6.852011391997381,0.6530945159369193,8.21140676265104,-0.0446669992393411,-0.00854440598220361,-0.04818537978123299,0.12304814751494123,0.3298681110951694
6.80734439275804,0.6445501099547156,8.163221382869807,-0.0446669992393411,-0.00854440598220361,-0.04818537978123299,0.11980065125396105,0.3324988960621722
6.762677393518699,0.636005703972512,8.115036003088575,-0.0446669992393411,-0.00854440598220361,-0.04818537978123299,0.11222850745391248,0.34166066753322355
6.718010394279357,0.6274612979903084,8.066850623307342,-0.0446669992393411,-0.00854440598220361,-0.04818537978123299,0.10857167462660117,0.3547783253492688
6.673343395040016,0.6189168920081047,8.01866524352611,-0.0446669992393411,-0.00854440598220361,-0.04818537978123299,0.10216037192192132,0.342570057755535
6.6286763958006745,0.6103724860259011,7.970479863744877,-0.0446669992393411,-0.00854440598220361,-0.04818537978123299,0.10662946116058183,0.3339033102054352
6.584009396561333,0.6018280800436975,7.922294483963643,-0.0446669992393411,-0.00854440598220361,-0.04818537978123299,0.10954166939572174,0.3217030265096057
6.539342397321992,0.5932836740614938,7.87410910418241,-0.0446669992393411,-0.00854440598220361,-0.04818537978123299,0.10942192087717428,0.3127268860950453
6.49467539808265,0.5847392680792902,7.825923724401177,-0.0446669992393411,-0.00854440598220361,-0.04818537978123299,0.0975544528434222,0.312047631373364
6.450008398843309,0.5761948620970866,7.7777383446199435,-0.0446669992393411,-0.00854440598220361,-0.04818537978123299,0.10405206938585129,0.3061325981742064
6.405341399603968,0.567650456114883,7.72955296483871,-0.0446669992393411,-0.00854440598220361,-0.04818537978123299,0.10405206938585129,0.3128186753662208
6.360674400364626,0.5591060501326793,7.681367585057477,-0.0446669992393411,-0.00854440598220361,-0.04818537978123299,0.10405206938585129,0.3249790874955499
6.316007401125285,0.5505616441504757,7.633182205276244,-0.0446669992393411,-0.00854440598220361,-0.04818537978123299,0.09527703452999667,0.32961854995029033
6.2713404018859435,0.5420172381682721,7.58499682549501,-0.0446669992393411,-0.00854440598220361,-0.04818537978123299,0.08912462168047726,0.31959279007990593
6.226673402646602,0.5334728321860684,7.536811445713777,-0.0446669992393411,-0.00854440598220361,-0.04818537978123299,0.08939740712248251,0.320209694578311
6.182006403407261,0.5249284262038648,7.488626065932544,-0.0446669992393411,-0.00854440598220361,-0.04818537978123299,0.09226220627560315,0.32996021733185543
6.1373394041679195,0.5163840202216612,7.440440686151311,-0.0446669992393411,-0.00854440598220361,-0.04818537978123299,0.09533869240117915,0.3330077960966362
6.092672404928578,0.5078396142394576,7.392255306370077,-0.0446669992393411,-0.00854440598220361,-0.04818537978123299,0.09533869240117915,0.34287252373856547
6.048005405689237,0.49929520825725393,7.344069926588844,-0.0446669992393411,-0.00854440598220361,-0.04818537978123299,0.10077802021536994,0.35758394409311306
6.003338406449895,0.4907508022750503,7.295884546807611,-0.0446669992393411,-0.00854440598220361,-0.04818537978123299,0.10778028090121197,0.3667754258780119
5.958671407210554,0.4822063962928467,7.2476991670263775,-0.0446669992393411,-0.00854440598220361,-0.04818537978123299,0.10829681875827639,0.36173804034478063
5.914004407971213,0.47366199031064304,7.199513787245144,-0.0446669992393411,-0.00854440598220361,-0.04818537978123299,0.11119798175589875,0.36936751720605593
5.869337408731871,0.4651175843284394,7.151328407463911,-0.0446669992393411,-0.00854440598220361,-0.04818537978123299,0.11944884241040052,0.3792965543218979
5.82467040949253,0.4565731783462358,7.103143027682678,-0.0446669992393411,-0.00854440598220361,-0.04818537978123299,0.11419406153487803,0.3967798362775789
5.7800034102531885,0.44802877236403216,7.054957647901444,-0.0446669992393411,-0.00854440598220361,-0.04818537978123299,0.11419406153487803,0.406686447779194
5.735336411013847,0.43948436638182853,7.006772268120211,-0.0446669992393411,-0.00854440598220361,-0.04818537978123299,0.11419406153487803,0.3896851066530849
5.690669411774506,0.4309399603996249,6.958586888338978,-0.0446669992393411,-0.00854440598220361,-0.04818537978123299,0.11419406153487803,0.40849065423852166
5.646002412535164,0.42239555441742127,6.910401508557745,-0.0446669992393411,-0.00854440598220361,-0.04818537978123299,0.10919816459958678,0.4201377652337703
5.601335413295823,0.41385114843521764,6.862216128776511,-0.0446669992393411,-0.00854440598220361,-0.04818537978123299,0.11149990985952335,0.4214312909305938
5.556668414056482,0.405306742453014,6.814030748995278,-0.0446669992393411,-0.00854440598220361,-0.04818537978123299,0.11479999036010549,0.42733813376790025
5.51200141481714,0.3967623364708104,6.765845369214045,-0.0446669992393411,-0.00854440598220361,-0.04818537978123299,0.11974761351891258,0.4271945667430559
5.467334415577799,0.38821793048860676,6.7176599894328115,-0.0446669992393411,-0.00854440598220361,-0.04818537978123299,0.12156181421847778,0.4102229189072045
5.422667416338458,0.3796735245064031,6.669474609651578,-0.0446669992393411,-0.00854440598220361,-0.04818537978123299,0.11530398138652725,0.41881281328606
5.378000417099116,0.3711291185241995,6.621289229870345,-0.0446669992393411,-0.00854440598220361,-0.04818537978123299,0.1432862728967932,0.414158832540357
5.333333417859775,0.36258471254199587,6.573103850089112,-0.0446669992393411,-0.00854440598220361,-0.04818537978123299,0.1432862728967932,0.40743924612201204
5.2886664186204335,0.35404030655979224,6.524918470307878,-0.0446669992393411,-0.00854440598220361,-0.04818537978123299,0.156004269224106,0.42300059350645997
5.243999419381092,0.3454959005775886,6.476733090526645,-0.0446669992393411,-0.00854440598220361,-0.04818537978123299,0.156004269224106,0.41461083122962394
5.199332420141751,0.336951494595385,6.428547710745412,-0.0446669992393411,-0.00854440598220361,-0.04818537978123299,0.156004269224106,0.41396885999087973
5.154665420902409,0.32840708861318135,6.380362330964179,-0.0446669992393411,-0.00854440598220361,-0.04818537978123299,0.156004269224106,0.4101256474891323
5.109998421663068,0.3198626826309777,6.332176951182945,-0.0446669992393411,-0.00854440598220361,-0.04818537978123299,0.156004269224106,0.4120197060583624
5.065331422423727,0.3113182766487741,6.283991571401712,-0.0446669992393411,-0.00854440598220361,-0.04818537978123299,0.156004269224106,0.4034703687883876
5.020664423184385,0.30277387066657047,6.235806191620479,-0.0446669992393411,-0.00854440598220361,-0.04818537978123299,0.156004269224106,0.40558350773740304
4.975997423945044,0.29422946468436684,6.1876208118392455,-0.0446669992393411,-0.00854440598220361,-0.04818537978123299,0.156004269224106,0.39452498977727124
4.931330424705703,0.2856850587021632,6.139435432058012,-0.0446669992393411,-0.00854440598220361,-0.04818537978123299,0.15174547391092003,0.3736995890943128
4.870269610371597,0.2846442029363416,6.191109102139209,-0.06106081433410499,-0.0010408557658216364,0.05167367008119672,0.15174547391092003,0.37815411788253317
4.809208796037492,0.28360334717051994,6.242782772220406,-0.06106081433410499,-0.0010408557658216364,0.05167367008119672,0.14856751236984558,0.37943960709681357
4.7481479817033865,0.2825624914046983,6.294456442301603,-0.06106081433410499,-0.0010408557658216364,0.05167367008119672,0.14856751236984558,0.3552635193649281
4.687087167369281,0.28152163563887667,6.3461301123828,-0.06106081433410499,-0.0010408557658216364,0.05167367008119672,0.14883913174983035,0.3403876535626602
4.626026353035176,0.28048077987305503,6.397803782463996,-0.06106081433410499,-0.0010408557658216364,0.05167367008119672,0.1642206130014109,0.34772753921969046
4.56496553870107,0.2794399241072334,6.449477452545193,-0.06106081433410499,-0.0010408557658216364,0.05167367008119672,0.1642206130014109,0.3552725901953074
4.503904724366965,0.27839906834141176,6.50115112262639,-0.06106081433410499,-0.0010408557658216364,0.05167367008119672,0.1642206130014109,0.3682043809466456
4.44284391003286,0.2773582125755901,6.552824792707587,-0.06106081433410499,-0.0010408557658216364,0.05167367008119672,0.1643456912450557,0.36196437377194457
4.381783095698754,0.2763173568097685,6.604498462788784,-0.06106081433410499,-0.0010408557658216364,0.05167367008119672,0.16032405749878406,0.35253684702291327
4.320722281364649,0.27527650104394685,6.6561721328699806,-0.06106081433410499,-0.0010408557658216364,0.05167367008119672,0.16032405749878406,0.34597133529963703
4.2596614670305435,0.2742356452781252,6.707845802951177,-0.06106081433410499,-0.0010408557658216364,0.05167367008119672,0.16032405749878406,0.32365332542213415
4.198600652696438,0.2731947895123036,6.759519473032374,-0.06106081433410499,-0.0010408557658216364,0.05167367008119672,0.16032405749878406,0.32685524918411296
4.205937919748973,0.2750083087950203,6.808918657089388,0.00733726705253405,0.0018135192827167025,0.049399184057013455,0.16157967988311944,0.3102669179491963
4.213275186801507,0.27682182807773703,6.858317841146401,0.00733726705253405,0.0018135192827167025,0.049399184057013455,0.16157967988311944,0.3032360786596959
4.2206124538540415,0.27863534736045376,6.907717025203414,0.00733726705253405,0.0018135192827167025,0.049399184057013455,0.16157967988311944,0.3042538458456299
4.227949720906576,0.2804488666431705,6.957116209260428,0.00733726705253405,0.0018135192827167025,0.049399184057013455,0.16157967988311944,0.303726814646123
4.23528698795911,0.2822623859258872,7.006515393317441,0.00733726705253405,0.0018135192827167025,0.049399184057013455,0.16157967988311944,0.308845999618574
4.242624255011645,0.28407590520860393,7.0559145773744545,0.00733726705253405,0.0018135192827167025,0.049399184057013455,0.16157967988311944,0.32992131111287715
4.249961522064179,0.28588942449132065,7.105313761431468,0.00733726705253405,0.0018135192827167025,0.049399184057013455,0.16157967988311944,0.34313079616194403
4.255825569307289,0.2791049397083849,7.067084936271279,0.005864047243109576,-0.006784484782935751,-0.0382288251601889,0.16157967988311944,0.3402242120421443
4.261689616550399,0.27232045492544915,7.028856111111089,0.005864047243109576,-0.006784484782935751,-0.0382288251601889,0.16157967988311944,0.3433944026989768
4.2675536637935085,0.2655359701425134,6.9906272859509,0.005864047243109576,-0.006784484782935751,-0.0382288251601889,0.16157967988311944,0.34938727984118934
4.273417711036618,0.25875148535957765,6.952398460790711,0.005864047243109576,-0.006784484782935751,-0.0382288251601889,0.16157967988311944,0.36279826537719495
4.279281758279728,0.2519670005766419,6.914169635630522,0.005864047243109576,-0.006784484782935751,-0.0382288251601889,0.16356075981098805,0.3707755661555201
4.285145805522838,0.24518251579370615,6.875940810470333,0.005864047243109576,-0.006784484782935751,-0.0382288251601889,0.15360669682653869,0.34879127637314805
4.2910098527659475,0.2383980310107704,6.837711985310143,0.005864047243109576,-0.006784484782935751,-0.0382288251601889,0.14625082294738015,0.36690214218468997
4.296873900009057,0.23161354622783464,6.799483160149954,0.005864047243109576,-0.006784484782935751,-0.0382288251601889,0.144377253538231,0.35916226390096123
4.302737947252167,0.2248290614448989,6.761254334989765,0.005864047243109576,-0.006784484782935751,-0.0382288251601889,0.144377253538231,0.3674062687567574
4.308601994495277,0.21804457666196314,6.723025509829576,0.005864047243109576,-0.006784484782935751,-0.0382288251601889,0.144377253538231,0.359267627983886
4.314466041738386,0.2112600918790274,6.6847966846693865,0.005864047243109576,-0.006784484782935751,-0.0382288251601889,0.13796563400645462,0.34898596353425215
4.320330088981496,0.20447560709609164,6.646567859509197,0.005864047243109576,-0.006784484782935751,-0.0382288251601889,0.13796563400645462,0.33682540953591655
4.326194136224606,0.1976911223131559,6.608339034349008,0.005864047243109576,-0.006784484782935751,-0.0382288251601889,0.1285345859758675,0.33315923065160413
4.332058183467716,0.19090663753022014,6.570110209188819,0.005864047243109576,-0.006784484782935751,-0.0382288251601889,0.1285345859758675,0.3342778508394521
4.337922230710825,0.18412215274728438,6.53188138402863,0.005864047243109576,-0.006784484782935751,-0.0382288251601889,0.15018349359439503,0.3481937767680562
4.343786277953935,0.17733766796434863,6.49365255886844,0.005864047243109576,-0.006784484782935751,-0.0382288251601889,0.15018349359439503,0.3362427427558456
4.349650325197045,0.17055318318141288,6.455423733708251,0.005864047243109576,-0.006784484782935751,-0.0382288251601889,0.15018349359439503,0.3477104757791871
4.355514372440155,0.16376869839847713,6.417194908548062,0.005864047243109576,-0.006784484782935751,-0.0382288251601889,0.15018349359439503,0.3561852677066565
4.361378419683264,0.15698421361554138,6.378966083387873,0.005864047243109576,-0.006784484782935751,-0.0382288251601889,0.15018349359439503,0.3468431711858805
4.367242466926374,0.15019972883260563,6.3407372582276835,0.005864047243109576,-0.006784484782935751,-0.0382288251601889,0.15018349359439503,0.339446336893382
4.373106514169484,0.14341524404966988,6.302508433067494,0.005864047243109576,-0.006784484782935751,-0.0382288251601889,0.15599996862641669,0.32869044179320334
4.3789705614125936,0.13663075926673413,6.264279607907305,0.005864047243109576,-0.006784484782935751,-0.0382288251601889,0.15599996862641669,0.32494982097688274
4.384834608655703,0.12984627448379837,6.226050782747116,0.005864047243109576,-0.006784484782935751,-0.0382288251601889,0.14768082280577624,0.3392425630680372
4.390698655898813,0.12306178970086262,6.187821957586927,0.005864047243109576,-0.006784484782935751,-0.0382288251601889,0.14448447870745876,0.331365329981305
4.396562703141923,0.11627730491792687,6.149593132426737,0.005864047243109576,-0.006784484782935751,-0.0382288251601889,0.149517948682743,0.32803924857189903
4.4024267503850325,0.10949282013499112,6.111364307266548,0.005864047243109576,-0.006784484782935751,-0.0382288251601889,0.14040941599602266,0.3208046046124966
4.408290797628142,0.10270833535205537,6.073135482106359,0.005864047243109576,-0.006784484782935751,-0.0382288251601889,0.16488646519557065,0.321042524521386
4.414154844871252,0.09592385056911962,6.03490665694617,0.005864047243109576,-0.006784484782935751,-0.0382288251601889,0.16325931992270973,0.3044865110694074
4.420018892114362,0.08913936578618387,5.996677831785981,0.005864047243109576,-0.006784484782935751,-0.0382288251601889,0.1728283782867425,0.3068156905880716
4.4258829393574715,0.08235488100324811,5.958449006625791,0.005864047243109576,-0.006784484782935751,-0.0382288251601889,0.1728283782867425,0.3043134312850622
4.431746986600581,0.07557039622031236,5.920220181465602,0.005864047243109576,-0.006784484782935751,-0.0382288251601889,0.1728283782867425,0.3029916655292799
4.437611033843691,0.06878591143737661,5.881991356305413,0.005864047243109576,-0.006784484782935751,-0.0382288251601889,0.16684025314985582,0.32015880788845114
4.443475081086801,0.06200142665444086,5.843762531145224,0.005864047243109576,-0.006784484782935751,-0.0382288251601889,0.16063980225815722,0.3160159133994035
4.44933912832991,0.05521694187150511,5.8055337059850345,0.005864047243109576,-0.006784484782935751,-0.0382288251601889,0.16338035570023574,0.3142925843971544
4.45520317557302,0.04843245708856936,5.767304880824845,0.005864047243109576,-0.006784484782935751,-0.0382288251601889,0.17142168143136424,0.3287094936282573
4.46106722281613,0.04164797230563361,5.729076055664656,0.005864047243109576,-0.006784484782935751,-0.0382288251601889,0.1649384382507934,0.31808490414369983
4.46693127005924,0.034863487522697856,5.690847230504467,0.005864047243109576,-0.006784484782935751,-0.0382288251601889,0.18874584357704585,0.30547997837306373
4.472795317302349,0.028079002739762104,5.652618405344278,0.005864047243109576,-0.006784484782935751,-0.0382288251601889,0.18874584357704585,0.30610492879904
4.478659364545459,0.021294517956826353,5.614389580184088,0.005864047243109576,-0.006784484782935751,-0.0382288251601889,0.18216234555892846,0.3088149521044365
4.484523411788569,0.014510033173890602,5.576160755023899,0.005864047243109576,-0.006784484782935751,-0.0382288251601889,0.1741509714675039,0.31779951637537956
4.490387459031679,0.007725548390954851,5.53793192986371,0.005864047243109576,-0.006784484782935751,-0.0382288251601889,0.1906611789204862,0.3083289316305257
4.496251506274788,0.0009410636080190993,5.499703104703521,0.005864047243109576,-0.006784484782935751,-0.0382288251601889,0.1906611789204862,0.31525104754873057
4.502115553517898,-0.005843421174916652,5.4614742795433315,0.005864047243109576,-0.006784484782935751,-0.0382288251601889,0.1955723998623557,0.3129230811492665
4.507979600761008,-0.012627905957852403,5.423245454383142,0.005864047243109576,-0.006784484782935751,-0.0382288251601889,0.19056268828631723,0.31914069978783277
4.5138436480041175,-0.019412390740788155,5.385016629222953,0.005864047243109576,-0.006784484782935751,-0.0382288251601889,0.19816057633851294,0.33013030755891576
4.519707695247227,-0.026196875523723906,5.346787804062764,0.005864047243109576,-0.006784484782935751,-0.0382288251601889,0.19211317193136523,0.33040275944367387
4.525571742490337,-0.03298136030665966,5.308558978902575,0.005864047243109576,-0.006784484782935751,-0.0382288251601889,0.19211317193136523,0.3408611039362398
4.531435789733447,-0.03976584508959541,5.2703301537423854,0.005864047243109576,-0.006784484782935751,-0.0382288251601889,0.19605460523472895,0.3559656373740259
4.5372998369765565,-0.04655032987253116,5.232101328582196,0.005864047243109576,-0.006784484782935751,-0.0382288251601889,0.1988028434389803,0.3501213733573888
4.543163884219666,-0.05333481465546691,5.193872503422007,0.005864047243109576,-0.006784484782935751,-0.0382288251601889,0.20729329675417602,0.3591683171061492
4.549027931462776,-0.06011929943840266,5.155643678261818,0.005864047243109576,-0.006784484782935751,-0.0382288251601889,0.1991033825629294,0.35612877355908573
4.554891978705886,-0.06690378422133841,5.117414853101629,0.005864047243109576,-0.006784484782935751,-0.0382288251601889,0.19545076332284683,0.35057693588807964
4.560756025948995,-0.07368826900427417,5.079186027941439,0.005864047243109576,-0.006784484782935751,-0.0382288251601889,0.19423937689252285,0.35004802389213746
4.566620073192105,-0.08047275378720992,5.04095720278125,0.005864047243109576,-0.006784484782935751,-0.0382288251601889,0.19423937689252285,0.33148435809414667
4.572484120435215,-0.08725723857014567,5.002728377621061,0.005864047243109576,-0.006784484782935751,-0.0382288251601889,0.20672892657437647,0.33413358364204115
4.578348167678325,-0.09404172335308142,4.964499552460872,0.005864047243109576,-0.006784484782935751,-0.0382288251601889,0.21741692682143776,0.34640188093761576
4.584212214921434,-0.10082620813601717,4.9262707273006825,0.005864047243109576,-0.006784484782935751,-0.0382288251601889,0.21741692682143776,0.34640188093761576
4.590076262164544,-0.10761069291895292,4.888041902140493,0.005864047243109576,-0.006784484782935751,-0.0382288251601889,0.22570395465170834,0.3481626136398643
4.595940309407654,-0.11439517770188867,4.849813076980304,0.005864047243109576,-0.006784484782935751,-0.0382288251601889,0.22570395465170834,0.35667079586040334
4.607823290531865,-0.12954536085581647,4.901189957666807,0.01188298112421146,-0.015150183153927795,0.05137688068650309,0.23594054935500444,0.3653223066429731
4.619706271656076,-0.14469554400974427,4.9525668383533095,0.01188298112421146,-0.015150183153927795,0.05137688068650309,0.23741565294824504,0.3741183431858249
4.631589252780287,-0.15984572716367207,5.003943719039812,0.01188298112421146,-0.015150183153927795,0.05137688068650309,0.24914548556682967,0.3830601026872098
4.6434722339044985,-0.17499591031759987,5.055320599726315,0.01188298112421146,-0.015150183153927795,0.05137688068650309,0.24914548556682967,0.39214878234537914
4.65535521502871,-0.19014609347152767,5.106697480412818,0.01188298112421146,-0.015150183153927795,0.05137688068650309,0.24914548556682967,0.40138557935858415
4.667238196152921,-0.20529627662545546,5.15807436109932,0.01188298112421146,-0.015150183153927795,0.05137688068650309,0.24914548556682967,0.41077169092507604
4.679121177277132,-0.22044645977938326,5.209451241785823,0.01188298112421146,-0.015150183153927795,0.05137688068650309,0.24914548556682967,0.42030831424310605
4.691004158401343,-0.23559664293331106,5.260828122472326,0.01188298112421146,-0.015150183153927795,0.05137688068650309,0.24914548556682967,0.4299966465109254
4.702887139525554,-0.25074682608723886,5.312205003158828,0.01188298112421146,-0.015150183153927795,0.05137688068650309,0.24914548556682967,0.43983788492678527
4.714770120649765,-0.26589700924116666,5.363581883845331,0.01188298112421146,-0.015150183153927795,0.05137688068650309,0.24914548556682967,0.44983322668893705
4.726653101773977,-0.28104719239509446,5.414958764531834,0.01188298112421146,-0.015150183153927795,0.05137688068650309,0.24914548556682967,0.4599838689956319
4.738536082898188,-0.29619737554902226,5.4663356452183365,0.01188298112421146,-0.015150183153927795,0.05137688068650309,0.24914548556682967,0.4702910090451209
4.750419064022399,-0.31134755870295006,5.517712525904839,0.01188298112421146,-0.015150183153927795,0.05137688068650309,0.24914548556682967,0.48075584403565547
4.76230204514661,-0.32649774185687785,5.569089406591342,0.01188298112421146,-0.015150183153927795,0.05137688068650309,0.2595630434463834,0.49137957116548686
4.774185026270821,-0.34164792501080565,5.620466287277845,0.01188298112421146,-0.015150183153927795,0.05137688068650309,0.25395514529271496,0.5021633876328662
4.786068007395032,-0.35679810816473345,5.671843167964347,0.01188298112421146,-0.015150183153927795,0.05137688068650309,0.25260001961085005,0.5021633876328662
4.7979509885192435,-0.37194829131866125,5.72322004865085,0.01188298112421146,-0.015150183153927795,0.05137688068650309,0.24492195323316443,0.5021633876328662
4.809833969643455,-0.38709847447258905,5.774596929337353,0.01188298112421146,-0.015150183153927795,0.05137688068650309,0.25250238305902306,0.5021633876328662
4.821716950767666,-0.40224865762651685,5.825973810023855,0.01188298112421146,-0.015150183153927795,0.05137688068650309,0.25061704099341064,0.5021633876328662
4.833599931891877,-0.41739884078044465,5.877350690710358,0.01188298112421146,-0.015150183153927795,0.05137688068650309,0.24886333638146454,0.5021633876328662
4.845482913016088,-0.43254902393437245,5.928727571396861,0.01188298112421146,-0.015150183153927795,0.05137688068650309,0.24059701054254942,0.5021633876328662
4.857365894140299,-0.44769920708830024,5.9801044520833635,0.01188298112421146,-0.015150183153927795,0.05137688068650309,0.2411970043514406,0.5021633876328662
4.8692488752645104,-0.46284939024222804,6.031481332769866,0.01188298112421146,-0.015150183153927795,0.05137688068650309,0.24386560564163715,0.5021633876328662
4.881131856388722,-0.47799957339615584,6.082858213456369,0.01188298112421146,-0.015150183153927795,0.05137688068650309,0.24058498113587037,0.5021633876328662
4.893014837512933,-0.49314975655008364,6.134235094142872,0.01188298112421146,-0.015150183153927795,0.05137688068650309,0.23098390632332205,0.5021633876328662
4.904897818637144,-0.5082999397040114,6.185611974829374,0.01188298112421146,-0.015150183153927795,0.05137688068650309,0.21844116059514465,0.5083104273247995
4.916780799761355,-0.5234501228579392,6.236988855515877,0.01188298112421146,-0.015150183153927795,0.05137688068650309,0.212522068607174,0.5073097631357004
4.928663780885566,-0.538600306011867,6.28836573620238,0.01188298112421146,-0.015150183153927795,0.05137688068650309,0.21433037430749183,0.5093767797170149
4.940546762009777,-0.5537504891657948,6.339742616888882,0.01188298112421146,-0.015150183153927795,0.05137688068650309,0.21939851448761472,0.5094888328344517
4.9524297431339885,-0.5689006723197226,6.391119497575385,0.01188298112421146,-0.015150183153927795,0.05137688068650309,0.22155810014712735,0.5074609548922568
4.9643127242582,-0.5840508554736504,6.442496378261888,0.01188298112421146,-0.015150183153927795,0.05137688068650309,0.22350721238245413,0.5066200528745561
4.976195705382411,-0.5992010386275782,6.4938732589483905,0.01188298112421146,-0.015150183153927795,0.05137688068650309,0.2256561856295131,0.511264291467061
4.988078686506622,-0.614351221781506,6.545250139634893,0.01188298112421146,-0.015150183153927795,0.05137688068650309,0.2307746242308732,0.5369249540562059
4.999961667630833,-0.6295014049354338,6.596627020321396,0.01188298112421146,-0.015150183153927795,0.05137688068650309,0.22679529245805358,0.5237160251918517
5.011844648755044,-0.6446515880893616,6.648003901007899,0.01188298112421146,-0.015150183153927795,0.05137688068650309,0.22747917151932825,0.5420892129551702
5.0237276298792555,-0.6598017712432894,6.699380781694401,0.01188298112421146,-0.015150183153927795,0.05137688068650309,0.22748430032124778,0.5545831523633084
5.035610611003467,-0.6749519543972172,6.750757662380904,0.01188298112421146,-0.015150183153927795,0.05137688068650309,0.22388240010269544,0.5539524055769298
5.047493592127678,-0.690102137551145,6.802134543067407,0.01188298112421146,-0.015150183153927795,0.05137688068650309,0.21562928207177112,0.5709205166132681
5.059376573251889,-0.7052523207050728,6.853511423753909,0.01188298112421146,-0.015150183153927795,0.05137688068650309,0.21618518478686735,0.5763368176390177
5.0712595543761,-0.7204025038590006,6.904888304440412,0.01188298112421146,-0.015150183153927795,0.05137688068650309,0.2125609470336354,0.5599493465101355
5.083142535500311,-0.7355526870129284,6.956265185126915,0.01188298112421146,-0.015150183153927795,0.05137688068650309,0.2104681770708531,0.5602685354530359
5.095025516624522,-0.7507028701668562,7.0076420658134175,0.01188298112421146,-0.015150183153927795,0.05137688068650309,0.20141155506716404,0.5624742701930807
5.106908497748734,-0.765853053320784,7.05901894649992,0.01188298112421146,-0.015150183153927795,0.05137688068650309,0.2033157328397606,0.5614272866539757
5.118791478872945,-0.7810032364747118,7.110395827186423,0.01188298112421146,-0.015150183153927795,0.05137688068650309,0.20051618997339685,0.5414592870705485
5.130674459997156,-0.7961534196286396,7.161772707872926,0.01188298112421146,-0.015150183153927795,0.05137688068650309,0.19065770084823258,0.5352436262165966
5.142557441121367,-0.8113036027825674,7.213149588559428,0.01188298112421146,-0.015150183153927795,0.05137688068650309,0.18408613194841514,0.5350987818892978
5.154440422245578,-0.8264537859364952,7.264526469245931,0.01188298112421146,-0.015150183153927795,0.05137688068650309,0.18758160218552705,0.5372689677544515
5.166323403369789,-0.841603969090423,7.315903349932434,0.01188298112421146,-0.015150183153927795,0.05137688068650309,0.1761390994008021,0.564339364641525
5.1782063844940005,-0.8567541522443508,7.367280230618936,0.01188298112421146,-0.015150183153927795,0.05137688068650309,0.17363091215261386,0.5824953590165625
5.190089365618212,-0.8719043353982786,7.418657111305439,0.01188298112421146,-0.015150183153927795,0.05137688068650309,0.1610411835634365,0.5878112200876228
5.201972346742423,-0.8870545185522064,7.470033991991942,0.01188298112421146,-0.015150183153927795,0.05137688068650309,0.16427846329694773,0.5940404093904168
5.213855327866634,-0.9022047017061342,7.5214108726784445,0.01188298112421146,-0.015150183153927795,0.05137688068650309,0.17121388419905118,0.5838530260066825
5.225738308990845,-0.917354884860062,7.572787753364947,0.01188298112421146,-0.015150183153927795,0.05137688068650309,0.16305771502523475,0.5620383874819358
5.237621290115056,-0.9325050680139898,7.62416463405145,0.01188298112421146,-0.015150183153927795,0.05137688068650309,0.16389683771480504,0.5592433738986624
5.249504271239267,-0.9476552511679176,7.675541514737953,0.01188298112421146,-0.015150183153927795,0.05137688068650309,0.16502906553678715,0.5651576945218905
5.261387252363479,-0.9628054343218454,7.726918395424455,0.01188298112421146,-0.015150183153927795,0.05137688068650309,0.1667649837533687,0.567355016902524
5.27327023348769,-0.9779556174757732,7.778295276110958,0.01188298112421146,-0.015150183153927795,0.05137688068650309,0.1693596145379834,0.5891329473636172
5.285153214611901,-0.993105800629701,7.829672156797461,0.01188298112421146,-0.015150183153927795,0.05137688068650309,0.1755855337931024,0.6092265030933441
5.297036195736112,-1.0082559837836287,7.8810490374839635,0.01188298112421146,-0.015150183153927795,0.05137688068650309,0.16770508231849027,0.631055393087278
5.308919176860323,-1.0234061669375565,7.932425918170466,0.01188298112421146,-0.015150183153927795,0.05137688068650309,0.16249236728036448,0.6144682839026889
5.320802157984534,-1.0385563500914843,7.983802798856969,0.01188298112421146,-0.015150183153927795,0.05137688068650309,0.1572178028777497,0.614196832793483
5.3326851391087455,-1.053706533245412,8.035179679543472,0.01188298112421146,-0.015150183153927795,0.05137688068650309,0.1551984177950281,0.6193173763743622
5.344568120232957,-1.0688567163993399,8.086556560229974,0.01188298112421146,-0.015150183153927795,0.05137688068650309,0.15425544793699464,0.6138353291440211
5.356451101357168,-1.0840068995532677,8.137933440916477,0.01188298112421146,-0.015150183153927795,0.05137688068650309,0.14768563683258296,0.6253408640268376
5.368334082481379,-1.0991570827071955,8.18931032160298,0.01188298112421146,-0.015150183153927795,0.05137688068650309,0.14480923179986585,0.6494699422846955
5.38021706360559,-1.1143072658611233,8.240687202289482,0.01188298112421146,-0.015150183153927795,0.05137688068650309,0.14601222341003559,0.6465540772945988
5.392100044729801,-1.129457449015051,8.292064082975985,0.01188298112421146,-0.015150183153927795,0.05137688068650309,0.14632611333884732,0.6388194674792487
5.4039830258540125,-1.1446076321689789,8.343440963662488,0.01188298112421146,-0.015150183153927795,0.05137688068650309,0.14554976929487154,0.6387119649658041
5.415866006978224,-1.1597578153229067,8.39481784434899,0.01188298112421146,-0.015150183153927795,0.05137688068650309,0.14215150089238954,0.6315503016884005
5.427748988102435,-1.1749079984768345,8.446194725035493,0.01188298112421146,-0.015150183153927795,0.05137688068650309,0.1398872691285889,0.6375897725546573
5.439631969226646,-1.1900581816307623,8.497571605721996,0.01188298112421146,-0.015150183153927795,0.05137688068650309,0.13993129802851556,0.645593622841796
5.451514950350857,-1.20520836478469,8.548948486408499,0.01188298112421146,-0.015150183153927795,0.05137688068650309,0.13477344185317483,0.6605195455751193
5.463397931475068,-1.2203585479386179,8.600325367095001,0.01188298112421146,-0.015150183153927795,0.05137688068650309,0.13604958978896128,0.6655627960329065
5.475280912599279,-1.2355087310925457,8.651702247781504,0.01188298112421146,-0.015150183153927795,0.05137688068650309,0.13460167011345203,0.6583527321735223
5.487163893723491,-1.2506589142464735,8.703079128468007,0.01188298112421146,-0.015150183153927795,0.05137688068650309,0.13016193148012364,0.6574184971487385
5.499046874847702,-1.2658090974004013,8.75445600915451,0.01188298112421146,-0.015150183153927795,0.05137688068650309,0.13264644975793402,0.6644663953298008
5.510929855971913,-1.280959280554329,8.805832889841012,0.01188298112421146,-0.015150183153927795,0.05137688068650309,0.1263910405473293,0.6536371566211155
5.522812837096124,-1.2961094637082569,8.857209770527515,0.01188298112421146,-0.015150183153927795,0.05137688068650309,0.12480434076269051,0.6472902868866599
5.534695818220335,-1.3112596468621847,8.908586651214017,0.01188298112421146,-0.015150183153927795,0.05137688068650309,0.12725244452705062,0.646546722081969
5.546578799344546,-1.3264098300161125,8.95996353190052,0.01188298112421146,-0.015150183153927795,0.05137688068650309,0.1298283474810437,0.6408649808486082
5.5584617804687575,-1.3415600131700403,9.011340412587023,0.01188298112421146,-0.015150183153927795,0.05137688068650309,0.13262928833402743,0.637700681622574
5.570344761592969,-1.356710196323968,9.062717293273526,0.01188298112421146,-0.015150183153927795,0.05137688068650309,0.13782044675521787,0.6555009076766428
5.58222774271718,-1.3718603794778959,9.114094173960028,0.01188298112421146,-0.015150183153927795,0.05137688068650309,0.14395716807745249,0.657597695485911
5.594110723841391,-1.3870105626318237,9.165471054646531,0.01188298112421146,-0.015150183153927795,0.05137688068650309,0.13607754275930078,0.6667621331614977
5.605993704965602,-1.4021607457857515,9.216847935333034,0.01188298112421146,-0.015150183153927795,0.05137688068650309,0.1365144462838291,0.643042484932542
5.617876686089813,-1.4173109289396792,9.268224816019536,0.01188298112421146,-0.015150183153927795,0.05137688068650309,0.13376619203319806,0.6381741378394133
5.629759667214024,-1.432461112093607,9.319601696706039,0.01188298112421146,-0.015150183153927795,0.05137688068650309,0.135674767202823,0.6629437778666731
5.641642648338236,-1.4476112952475348,9.370978577392542,0.01188298112421146,-0.015150183153927795,0.05137688068650309,0.1334083868462891,0.6531675230281313
5.653525629462447,-1.4627614784014626,9.422355458079045,0.01188298112421146,-0.015150183153927795,0.05137688068650309,0.14383454455018066,0.631498947514242
5.665408610586658,-1.4779116615553904,9.473732338765547,0.01188298112421146,-0.015150183153927795,0.05137688068650309,0.14053244898623937,0.6279813453813292
5.677291591710869,-1.4930618447093182,9.52510921945205,0.01188298112421146,-0.015150183153927795,0.05137688068650309,0.14237149620351874,0.6330063917296009
5.68917457283508,-1.508212027863246,9.576486100138553,0.01188298112421146,-0.015150183153927795,0.05137688068650309,0.14521292574712077,0.6263780890322711
5.701057553959291,-1.5233622110171738,9.627862980825055,0.01188298112421146,-0.015150183153927795,0.05137688068650309,0.14693123092053903,0.6333518672315351
5.7129405350835025,-1.5385123941711016,9.679239861511558,0.01188298112421146,-0.015150183153927795,0.05137688068650309,0.1472087559722327,0.6459133798638916
5.724823516207714,-1.5536625773250294,9.73061674219806,0.01188298112421146,-0.015150183153927795,0.05137688068650309,0.1482068754655351,0.6492341067616714
5.716712343905004,-1.562270614714852,9.739516770757174,-0.008111172302709791,-0.008608037389822533,0.008900028559112441,0.1463096148807343,0.6298273463762489
5.708601171602295,-1.5708786521046745,9.748416799316287,-0.008111172302709791,-0.008608037389822533,0.008900028559112441,0.14439450415684424,0.6347369692362751
5.700489999299585,-1.579486689494497,9.7573168278754,-0.008111172302709791,-0.008608037389822533,0.008900028559112441,0.14085712718109364,0.6461183351962672
5.692378826996876,-1.5880947268843195,9.766216856434513,-0.008111172302709791,-0.008608037389822533,0.008900028559112441,0.1324284963612096,0.6758900218487351
5.684267654694167,-1.596702764274142,9.775116884993626,-0.008111172302709791,-0.008608037389822533,0.008900028559112441,0.13179367781545914,0.6813735861086632
5.676156482391457,-1.6053108016639646,9.784016913552739,-0.008111172302709791,-0.008608037389822533,0.008900028559112441,0.13589199722688297,0.6741335422805661
5.668045310088748,-1.613918839053787,9.792916942111852,-0.008111172302709791,-0.008608037389822533,0.008900028559112441,0.14126520043600962,0.6906402712956846
5.659934137786038,-1.6225268764436096,9.801816970670965,-0.008111172302709791,-0.008608037389822533,0.008900028559112441,0.1491177229449231,0.682560074517536
5.651822965483329,-1.6311349138334321,9.810716999230078,-0.008111172302709791,-0.008608037389822533,0.008900028559112441,0.14985647700901664,0.7120095484560279
5.6437117931806196,-1.6397429512232546,9.81961702778919,-0.008111172302709791,-0.008608037389822533,0.008900028559112441,0.15177369493882722,0.7183313018519928
5.63560062087791,-1.6483509886130772,9.828517056348304,-0.008111172302709791,-0.008608037389822533,0.008900028559112441,0.1442636621551772,0.7017098880096816
5.627489448575201,-1.6569590260028997,9.837417084907417,-0.008111172302709791,-0.008608037389822533,0.008900028559112441,0.13846012068442487,0.7107516783807685
5.619378276272491,-1.6655670633927222,9.84631711346653,-0.008111172302709791,-0.008608037389822533,0.008900028559112441,0.1349477626364075,0.7152675803070359
5.611267103969782,-1.6741751007825447,9.855217142025642,-0.008111172302709791,-0.008608037389822533,0.008900028559112441,0.12892964694995246,0.7169312741064071
5.6031559316670725,-1.6827831381723672,9.864117170584755,-0.008111172302709791,-0.008608037389822533,0.008900028559112441,0.1211969461845077,0.7255612196208951
5.595044759364363,-1.6913911755621898,9.873017199143868,-0.008111172302709791,-0.008608037389822533,0.008900028559112441,0.11925586091055207,0.7213249718816186
5.586933587061654,-1.6999992129520123,9.881917227702981,-0.008111172302709791,-0.008608037389822533,0.008900028559112441,0.1174780840345707,0.7209017829022991
5.578822414758944,-1.7086072503418348,9.890817256262094,-0.008111172302709791,-0.008608037389822533,0.008900028559112441,0.11156169035668963,0.7205873481698327
5.570711242456235,-1.7172152877316573,9.899717284821207,-0.008111172302709791,-0.008608037389822533,0.008900028559112441,0.11285067269285166,0.7154341721691834
5.562600070153525,-1.7258233251214798,9.90861731338032,-0.008111172302709791,-0.008608037389822533,0.008900028559112441,0.11306809044806292,0.7284488166784011
5.554488897850816,-1.7344313625113024,9.917517341939433,-0.008111172302709791,-0.008608037389822533,0.008900028559112441,0.10895621602826537,0.705994727498611
5.546377725548107,-1.7430393999011249,9.926417370498546,-0.008111172302709791,-0.008608037389822533,0.008900028559112441,0.11029365026992405,0.7072975790340383
5.518358473948566,-1.7376742918524979,9.873211087702142,-0.028019251599540742,0.0053651080486269475,-0.053206282796403916,0.11063965949790185,0.7063587868194778
5.490339222349025,-1.7323091838038709,9.820004804905738,-0.028019251599540742,0.0053651080486269475,-0.053206282796403916,0.10072611883812546,0.7024929608967158
5.462319970749484,-1.726944075755244,9.766798522109333,-0.028019251599540742,0.0053651080486269475,-0.053206282796403916,0.09434188000586541,0.715608512994188
5.4343007191499435,-1.721578967706617,9.713592239312929,-0.028019251599540742,0.0053651080486269475,-0.053206282796403916,0.10952058601853813,0.7019604058283927
5.406281467550403,-1.71621385965799,9.660385956516524,-0.028019251599540742,0.0053651080486269475,-0.053206282796403916,0.11337871396657179,0.6947703733388054
5.378262215950862,-1.710848751609363,9.60717967372012,-0.028019251599540742,0.0053651080486269475,-0.053206282796403916,0.11111938702320581,0.7022163433225656
5.350242964351321,-1.705483643560736,9.553973390923716,-0.028019251599540742,0.0053651080486269475,-0.053206282796403916,0.11874622229268961,0.7147677438893797
5.32222371275178,-1.700118535512109,9.500767108127311,-0.028019251599540742,0.0053651080486269475,-0.053206282796403916,0.11749650980797681,0.711274131988406
5.29420446115224,-1.694753427463482,9.447560825330907,-0.028019251599540742,0.0053651080486269475,-0.053206282796403916,0.11712688431851975,0.7097170489518003
5.266185209552699,-1.689388319414855,9.394354542534503,-0.028019251599540742,0.0053651080486269475,-0.053206282796403916,0.11391009471197773,0.7233197005446801
5.238165957953158,-1.684023211366228,9.341148259738098,-0.028019251599540742,0.0053651080486269475,-0.053206282796403916,0.10561128716088988,0.7273645196207283
5.210146706353617,-1.678658103317601,9.287941976941694,-0.028019251599540742,0.0053651080486269475,-0.053206282796403916,0.10893951187110139,0.7257378678035182
5.1821274547540765,-1.673292995268974,9.23473569414529,-0.028019251599540742,0.0053651080486269475,-0.053206282796403916,0.10200245644831663,0.7418832378377282
5.154108203154536,-1.667927887220347,9.181529411348885,-0.028019251599540742,0.0053651080486269475,-0.053206282796403916,0.1066971977062948,0.7445654845330614
5.126088951554995,-1.66256277917172,9.12832312855248,-0.028019251599540742,0.0053651080486269475,-0.053206282796403916,0.10627511406881929,0.7473997416679549
5.098069699955454,-1.657197671123093,9.075116845756076,-0.028019251599540742,0.0053651080486269475,-0.053206282796403916,0.10658830710811143,0.7292195555722064
5.0700504483559135,-1.651832563074466,9.021910562959672,-0.028019251599540742,0.0053651080486269475,-0.053206282796403916,0.101278540606904,0.7278671294828072
5.042031196756373,-1.646467455025839,8.968704280163267,-0.028019251599540742,0.0053651080486269475,-0.053206282796403916,0.09948562995082971,0.725959718749194
5.014011945156832,-1.641102346977212,8.915497997366863,-0.028019251599540742,0.0053651080486269475,-0.053206282796403916,0.09606837803926933,0.7366339457388908
4.985992693557291,-1.635737238928585,8.862291714570459,-0.028019251599540742,0.0053651080486269475,-0.053206282796403916,0.09803730514157302,0.7507474691753419
4.95797344195775,-1.630372130879958,8.809085431774054,-0.028019251599540742,0.0053651080486269475,-0.053206282796403916,0.09912984400544518,0.7660887608945571
4.92995419035821,-1.625007022831331,8.75587914897765,-0.028019251599540742,0.0053651080486269475,-0.053206282796403916,0.10366733563242866,0.7715484535161664
4.901934938758669,-1.619641914782704,8.702672866181246,-0.028019251599540742,0.0053651080486269475,-0.053206282796403916,0.10102090282468226,0.7885390564275082
4.873915687159128,-1.614276806734077,8.649466583384841,-0.028019251599540742,0.0053651080486269475,-0.053206282796403916,0.09469946710699619,0.7960207753726115
4.845896435559587,-1.60891169868545,8.596260300588437,-0.028019251599540742,0.0053651080486269475,-0.053206282796403916,0.0916883375691293,0.7996506076998692
4.8178771839600465,-1.603546590636823,8.543054017792032,-0.028019251599540742,0.0053651080486269475,-0.053206282796403916,0.07996422960680943,0.8056077950318186
4.789857932360506,-1.598181482588196,8.489847734995628,-0.028019251599540742,0.0053651080486269475,-0.053206282796403916,0.07318814363489476,0.7942934512448193
4.761838680760965,-1.592816374539569,8.436641452199224,-0.028019251599540742,0.0053651080486269475,-0.053206282796403916,0.07318814363489476,0.7971901714282891
4.733819429161424,-1.587451266490942,8.38343516940282,-0.028019251599540742,0.0053651080486269475,-0.053206282796403916,0.07089000643353599,0.8082042077414537
4.705800177561883,-1.582086158442315,8.330228886606415,-0.028019251599540742,0.0053651080486269475,-0.053206282796403916,0.07786420573776255,0.7890941252300598
4.677780925962343,-1.576721050393688,8.27702260381001,-0.028019251599540742,0.0053651080486269475,-0.053206282796403916,0.07786420573776255,0.7944515847664638
4.649761674362802,-1.571355942345061,8.223816321013606,-0.028019251599540742,0.0053651080486269475,-0.053206282796403916,0.07786420573776255,0.8049438893322978
4.621742422763261,-1.565990834296434,8.170610038217202,-0.028019251599540742,0.0053651080486269475,-0.053206282796403916,0.09767325813271477,0.8088557825531499
4.59372317116372,-1.560625726247807,8.117403755420797,-0.028019251599540742,0.0053651080486269475,-0.053206282796403916,0.09767325813271477,0.8052813974073727
4.5657039195641795,-1.55526061819918,8.064197472624393,-0.028019251599540742,0.0053651080486269475,-0.053206282796403916,0.09767325813271477,0.803762394711241
4.537684667964639,-1.549895510150553,8.010991189827989,-0.028019251599540742,0.0053651080486269475,-0.053206282796403916,0.09767325813271477,0.8019453195330235
4.509665416365098,-1.544530402101926,7.957784907031585,-0.028019251599540742,0.0053651080486269475,-0.053206282796403916,0.10252486020505222,0.8104726765811521
4.481646164765557,-1.539165294053299,7.904578624235182,-0.028019251599540742,0.0053651080486269475,-0.053206282796403916,0.10252486020505222,0.8170471026305712
4.453626913166016,-1.533800186004672,7.851372341438778,-0.028019251599540742,0.0053651080486269475,-0.053206282796403916,0.10252486020505222,0.8178513585562686
4.425607661566476,-1.528435077956045,7.798166058642375,-0.028019251599540742,0.0053651080486269475,-0.053206282796403916,0.10252486020505222,0.8073531006484839
4.397588409966935,-1.523069969907418,7.744959775845971,-0.028019251599540742,0.0053651080486269475,-0.053206282796403916,0.10252486020505222,0.8132574281142386
4.369569158367394,-1.517704861858791,7.691753493049568,-0.028019251599540742,0.0053651080486269475,-0.053206282796403916,0.10252486020505222,0.8136928443816042
4.341549906767853,-1.512339753810164,7.638547210253164,-0.028019251599540742,0.0053651080486269475,-0.053206282796403916,0.09499128416971934,0.8222726473801807
4.313530655168313,-1.506974645761537,7.585340927456761,-0.028019251599540742,0.0053651080486269475,-0.053206282796403916,0.09499128416971934,0.8087746821631385
4.285511403568772,-1.50160953771291,7.532134644660357,-0.028019251599540742,0.0053651080486269475,-0.053206282796403916,0.08738177311597148,0.8026443746616121
4.257492151969231,-1.496244429664283,7.478928361863954,-0.028019251599540742,0.0053651080486269475,-0.053206282796403916,0.10409892165358027,0.8099701382327265
4.22947290036969,-1.490879321615656,7.42572207906755,-0.028019251599540742,0.0053651080486269475,-0.053206282796403916,0.10409892165358027,0.8122997498848178
4.2014536487701495,-1.485514213567029,7.372515796271147,-0.028019251599540742,0.0053651080486269475,-0.053206282796403916,0.10401829420336808,0.8014200502335772
4.173434397170609,-1.480149105518402,7.319309513474743,-0.028019251599540742,0.0053651080486269475,-0.053206282796403916,0.11119017994869324,0.7965083238551887
4.145415145571068,-1.474783997469775,7.26610323067834,-0.028019251599540742,0.0053651080486269475,-0.053206282796403916,0.10176242606027217,0.7970984644658846
4.117395893971527,-1.469418889421148,7.212896947881936,-0.028019251599540742,0.0053651080486269475,-0.053206282796403916,0.10176242606027217,0.7962578028643135
4.089376642371986,-1.464053781372521,7.159690665085533,-0.028019251599540742,0.0053651080486269475,-0.053206282796403916,0.11457808259344116,0.8119412521973878
4.061357390772446,-1.458688673323894,7.106484382289129,-0.028019251599540742,0.0053651080486269475,-0.053206282796403916,0.11457808259344116,0.8104991713341851
4.033338139172905,-1.453323565275267,7.053278099492726,-0.028019251599540742,0.0053651080486269475,-0.053206282796403916,0.12587133711479095,0.8099513309800588
4.005318887573364,-1.44795845722664,7.000071816696322,-0.028019251599540742,0.0053651080486269475,-0.053206282796403916,0.12587133711479095,0.8070372718600687
3.9772996359738233,-1.442593349178013,6.946865533899919,-0.028019251599540742,0.0053651080486269475,-0.053206282796403916,0.11761128247325563,0.7967783835620843
3.9492803843742825,-1.437228241129386,6.893659251103515,-0.028019251599540742,0.0053651080486269475,-0.053206282796403916,0.11761128247325563,0.7999452215000691
3.9212611327747418,-1.431863133080759,6.840452968307112,-0.028019251599540742,0.0053651080486269475,-0.053206282796403916,0.11347895681150938,0.7909593665636796
3.893241881175201,-1.426498025032132,6.787246685510708,-0.028019251599540742,0.0053651080486269475,-0.053206282796403916,0.11302499413143063,0.8008455103402378
3.86522262957566,-1.421132916983505,6.734040402714305,-0.028019251599540742,0.0053651080486269475,-0.053206282796403916,0.1239407245806352,0.8164580512769567
3.8372033779761194,-1.415767808934878,6.680834119917901,-0.028019251599540742,0.0053651080486269475,-0.053206282796403916,0.11888258168339608,0.8182597396246652
3.8091841263765787,-1.410402700886251,6.627627837121498,-0.028019251599540742,0.0053651080486269475,-0.053206282796403916,0.13335099266458733,0.8196643121931262
3.781164874777038,-1.405037592837624,6.574421554325094,-0.028019251599540742,0.0053651080486269475,-0.053206282796403916,0.13075864286607283,0.830107911694983
3.8152925152732555,-1.4078050256862864,6.643592161106457,0.034127640496217665,-0.002767432848662385,0.06917060678136225,0.13486045598071006,0.8278125022799357
3.849420155769473,-1.4105724585349488,6.71276276788782,0.034127640496217665,-0.002767432848662385,0.06917060678136225,0.15045064932379199,0.8272337260755249
3.883547796265691,-1.4133398913836113,6.781933374669182,0.034127640496217665,-0.002767432848662385,0.06917060678136225,0.15045064932379199,0.8268818733337918
3.9176754367619084,-1.4161073242322737,6.851103981450545,0.034127640496217665,-0.002767432848662385,0.06917060678136225,0.15045064932379199,0.812804590461416
3.951803077258126,-1.4188747570809361,6.920274588231908,0.034127640496217665,-0.002767432848662385,0.06917060678136225,0.15045064932379199,0.7988954704096812
3.9859307177543437,-1.4216421899295986,6.98944519501327,0.034127640496217665,-0.002767432848662385,0.06917060678136225,0.14563891571170565,0.7787832669333258
4.020058358250561,-1.424409622778261,7.058615801794633,0.034127640496217665,-0.002767432848662385,0.06917060678136225,0.15006173719352056,0.7717396013521524
4.054185998746779,-1.4271770556269234,7.127786408575996,0.034127640496217665,-0.002767432848662385,0.06917060678136225,0.15006173719352056,0.7654882002781235
4.088313639242997,-1.4299444884755859,7.196957015357358,0.034127640496217665,-0.002767432848662385,0.06917060678136225,0.15006173719352056,0.7679698690282175
4.122441279739214,-1.4327119213242483,7.266127622138721,0.034127640496217665,-0.002767432848662385,0.06917060678136225,0.15006173719352056,0.7643600572938859
4.156568920235432,-1.4354793541729107,7.335298228920084,0.034127640496217665,-0.002767432848662385,0.06917060678136225,0.15006173719352056,0.7739403207176832
4.1906965607316495,-1.4382467870215732,7.404468835701446,0.034127640496217665,-0.002767432848662385,0.06917060678136225,0.15006173719352056,0.7667861376807477
4.224824201227867,-1.4410142198702356,7.473639442482809,0.034127640496217665,-0.002767432848662385,0.06917060678136225,0.15006173719352056,0.7511254845230487
4.258951841724085,-1.443781652718898,7.542810049264172,0.034127640496217665,-0.002767432848662385,0.06917060678136225,0.15006173719352056,0.7539035029409925
4.2930794822203024,-1.4465490855675605,7.611980656045534,0.034127640496217665,-0.002767432848662385,0.06917060678136225,0.15006173719352056,0.7562756479731253
4.32720712271652,-1.4493165184162229,7.681151262826897,0.034127640496217665,-0.002767432848662385,0.06917060678136225,0.15006173719352056,0.7535340804596738
4.361334763212738,-1.4520839512648853,7.75032186960826,0.034127640496217665,-0.002767432848662385,0.06917060678136225,0.15006173719352056,0.7582611285874046
4.395462403708955,-1.4548513841135478,7.819492476389622,0.034127640496217665,-0.002767432848662385,0.06917060678136225,0.14512080254289703,0.7648248687748092
4.429590044205173,-1.4576188169622102,7.888663083170985,0.034127640496217665,-0.002767432848662385,0.06917060678136225,0.14563192856812834,0.7710643327012774
4.463717684701391,-1.4603862498108726,7.957833689952348,0.034127640496217665,-0.002767432848662385,0.06917060678136225,0.14730134648924195,0.7720884979106775
4.497845325197608,-1.463153682659535,8.02700429673371,0.034127640496217665,-0.002767432848662385,0.06917060678136225,0.14034698977868681,0.7777194997353526
4.531972965693826,-1.4659211155081975,8.096174903515072,0.034127640496217665,-0.002767432848662385,0.06917060678136225,0.1368311081369123,0.7831146531213635
4.5661006061900435,-1.46868854835686,8.165345510296435,0.034127640496217665,-0.002767432848662385,0.06917060678136225,0.1275267741529068,0.7822639823813726
4.600228246686261,-1.4714559812055223,8.234516117077797,0.034127640496217665,-0.002767432848662385,0.06917060678136225,0.1286210497674159,0.7728892255283554
4.634355887182479,-1.4742234140541848,8.30368672385916,0.034127640496217665,-0.002767432848662385,0.06917060678136225,0.1306040722922565,0.7624286081523141
4.6684835276786965,-1.4769908469028472,8.372857330640523,0.034127640496217665,-0.002767432848662385,0.06917060678136225,0.13032755664155588,0.762634673662285
4.702611168174914,-1.4797582797515096,8.442027937421885,0.034127640496217665,-0.002767432848662385,0.06917060678136225,0.12854134373233086,0.7707529153598348
4.736738808671132,-1.482525712600172,8.511198544203248,0.034127640496217665,-0.002767432848662385,0.06917060678136225,0.12292301420412627,0.7530458610958414
4.770866449167349,-1.4852931454488345,8.58036915098461,0.034127640496217665,-0.002767432848662385,0.06917060678136225,0.12031058270409885,0.7417568071153244
4.804994089663567,-1.488060578297497,8.649539757765973,0.034127640496217665,-0.002767432848662385,0.06917060678136225,0.1230753902550648,0.7577703649960755
4.839121730159785,-1.4908280111461594,8.718710364547336,0.034127640496217665,-0.002767432848662385,0.06917060678136225,0.11505406384738537,0.7677073347417297
4.873249370656002,-1.4935954439948218,8.787880971328699,0.034127640496217665,-0.002767432848662385,0.06917060678136225,0.10868571245473188,0.7566433254434557
4.90737701115222,-1.4963628768434842,8.857051578110061,0.034127640496217665,-0.002767432848662385,0.06917060678136225,0.11121706456427119,0.7568400287251228
4.9415046516484376,-1.4991303096921467,8.926222184891424,0.034127640496217665,-0.002767432848662385,0.06917060678136225,0.10899237570754634,0.7473488724903101
4.975632292144655,-1.501897742540809,8.995392791672787,0.034127640496217665,-0.002767432848662385,0.06917060678136225,0.10641951090119627,0.7427816585263151
5.009759932640873,-1.5046651753894715,9.06456339845415,0.034127640496217665,-0.002767432848662385,0.06917060678136225,0.10267009391563278,0.7310070984057634
5.0438875731370905,-1.507432608238134,9.133734005235512,0.034127640496217665,-0.002767432848662385,0.06917060678136225,0.0978206258727721,0.7490982105620541
5.078015213633308,-1.5102000410867964,9.202904612016875,0.034127640496217665,-0.002767432848662385,0.06917060678136225,0.0884783625265528,0.7537372628848251
5.112142854129526,-1.5129674739354588,9.272075218798237,0.034127640496217665,-0.002767432848662385,0.06917060678136225,0.09282635977298255,0.7445755948942695
5.146270494625743,-1.5157349067841213,9.3412458255796,0.034127640496217665,-0.002767432848662385,0.06917060678136225,0.10136035586031741,0.7347591406581365
5.180398135121961,-1.5185023396327837,9.410416432360963,0.034127640496217665,-0.002767432848662385,0.06917060678136225,0.09264849710985504,0.7258192042194735
5.214525775618179,-1.5212697724814461,9.479587039142325,0.034127640496217665,-0.002767432848662385,0.06917060678136225,0.09617288181912123,0.7240302446243707
5.248653416114396,-1.5240372053301086,9.548757645923688,0.034127640496217665,-0.002767432848662385,0.06917060678136225,0.09191858483456199,0.7231861132594812
5.282781056610614,-1.526804638178771,9.61792825270505,0.034127640496217665,-0.002767432848662385,0.06917060678136225,0.08598750324154797,0.7262720685474748
5.316908697106832,-1.5295720710274334,9.687098859486413,0.034127640496217665,-0.002767432848662385,0.06917060678136225,0.08846876343691087,0.713489266774589
5.351036337603049,-1.5323395038760959,9.756269466267776,0.034127640496217665,-0.002767432848662385,0.06917060678136225,0.08737701276540537,0.7021596361092339
5.385163978099267,-1.5351069367247583,9.825440073049139,0.034127640496217665,-0.002767432848662385,0.06917060678136225,0.09550667083680464,0.6991103488502275
5.4192916185954845,-1.5378743695734207,9.894610679830501,0.034127640496217665,-0.002767432848662385,0.06917060678136225,0.09357947224258963,0.7071310152193767
5.453419259091702,-1.5406418024220832,9.963781286611864,0.034127640496217665,-0.002767432848662385,0.06917060678136225,0.0894713329340726,0.6944128727803094
5.446309015358718,-1.5432904911385301,9.918907998197232,-0.007110243732984371,-0.002648688716447055,-0.044873288414631465,0.09295161917582803,0.696375126024214
5.439198771625734,-1.545939179854977,9.8740347097826,-0.007110243732984371,-0.002648688716447055,-0.044873288414631465,0.08778165240014185,0.7028539271299944
5.43208852789275,-1.548587868571424,9.829161421367969,-0.007110243732984371,-0.002648688716447055,-0.044873288414631465,0.08986662812042588,0.7113264406864473
5.424978284159766,-1.551236557287871,9.784288132953337,-0.007110243732984371,-0.002648688716447055,-0.044873288414631465,0.0939394187336011,0.7081708520103825
5.417868040426782,-1.553885246004318,9.739414844538706,-0.007110243732984371,-0.002648688716447055,-0.044873288414631465,0.08909960485029356,0.705789815279913
5.410757796693798,-1.556533934720765,9.694541556124074,-0.007110243732984371,-0.002648688716447055,-0.044873288414631465,0.09238197687277755,0.7061570935987288
5.403647552960814,-1.559182623437212,9.649668267709442,-0.007110243732984371,-0.002648688716447055,-0.044873288414631465,0.09301658404443916,0.7053435321704117
5.39653730922783,-1.561831312153659,9.60479497929481,-0.007110243732984371,-0.002648688716447055,-0.044873288414631465,0.09869347310892602,0.6843493955019037
5.389427065494846,-1.5644800008701059,9.559921690880179,-0.007110243732984371,-0.002648688716447055,-0.044873288414631465,0.09750142279326163,0.7069186523720076
5.382316821761862,-1.5671286895865528,9.515048402465547,-0.007110243732984371,-0.002648688716447055,-0.044873288414631465,0.10576797404355293,0.708577431087882
5.3752065780288785,-1.5697773783029998,9.470175114050916,-0.007110243732984371,-0.002648688716447055,-0.044873288414631465,0.09984431901743045,0.7068864654235253
5.3680963342958945,-1.5724260670194468,9.425301825636284,-0.007110243732984371,-0.002648688716447055,-0.044873288414631465,0.0990495546557154,0.7051597630794951
5.3609860905629105,-1.5750747557358937,9.380428537221652,-0.007110243732984371,-0.002648688716447055,-0.044873288414631465,0.08973964642760127,0.6926367989741847
5.353875846829927,-1.5777234444523407,9.33555524880702,-0.007110243732984371,-0.002648688716447055,-0.044873288414631465,0.07981104834119634,0.678381949079958
5.346765603096943,-1.5803721331687877,9.290681960392389,-0.007110243732984371,-0.002648688716447055,-0.044873288414631465,0.07981104834119634,0.6828496615572344
5.339655359363959,-1.5830208218852346,9.245808671977757,-0.007110243732984371,-0.002648688716447055,-0.044873288414631465,0.07981104834119634,0.6895481531493118
5.332545115630975,-1.5856695106016816,9.200935383563126,-0.007110243732984371,-0.002648688716447055,-0.044873288414631465,0.07981104834119634,0.6872279619474749
5.325434871897991,-1.5883181993181286,9.156062095148494,-0.007110243732984371,-0.002648688716447055,-0.044873288414631465,0.07981104834119634,0.6867561126038577
5.318324628165007,-1.5909668880345755,9.111188806733862,-0.007110243732984371,-0.002648688716447055,-0.044873288414631465,0.07851579692742663,0.6980111149206272
5.311214384432023,-1.5936155767510225,9.06631551831923,-0.007110243732984371,-0.002648688716447055,-0.044873288414631465,0.0877359493364404,0.6782836531036995
5.304104140699039,-1.5962642654674695,9.021442229904599,-0.007110243732984371,-0.002648688716447055,-0.044873288414631465,0.0877359493364404,0.6834831177681077
5.296993896966055,-1.5989129541839164,8.976568941489967,-0.007110243732984371,-0.002648688716447055,-0.044873288414631465,0.0877359493364404,0.6888370048189986
5.289883653233071,-1.6015616429003634,8.931695653075336,-0.007110243732984371,-0.002648688716447055,-0.044873288414631465,0.0877359493364404,0.6919959560736997
5.282773409500087,-1.6042103316168104,8.886822364660704,-0.007110243732984371,-0.002648688716447055,-0.044873288414631465,0.0877359493364404,0.6812553517192274
5.275663165767103,-1.6068590203332573,8.841949076246072,-0.007110243732984371,-0.002648688716447055,-0.044873288414631465,0.0877359493364404,0.6845765681103054
5.268552922034119,-1.6095077090497043,8.79707578783144,-0.007110243732984371,-0.002648688716447055,-0.044873288414631465,0.0877359493364404,0.6844008790158222
5.261442678301135,-1.6121563977661513,8.752202499416809,-0.007110243732984371,-0.002648688716447055,-0.044873288414631465,0.0877359493364404,0.6947192946837595
5.254332434568151,-1.6148050864825982,8.707329211002177,-0.007110243732984371,-0.002648688716447055,-0.044873288414631465,0.0877359493364404,0.7002755936463313
5.247222190835167,-1.6174537751990452,8.662455922587545,-0.007110243732984371,-0.002648688716447055,-0.044873288414631465,0.0827845701211103,0.6906962153860471
5.240111947102183,-1.6201024639154922,8.617582634172914,-0.007110243732984371,-0.002648688716447055,-0.044873288414631465,0.0827845701211103,0.6937767044676529
5.233001703369199,-1.6227511526319391,8.572709345758282,-0.007110243732984371,-0.002648688716447055,-0.044873288414631465,0.0827845701211103,0.6904805872967801
5.225891459636215,-1.625399841348386,8.52783605734365,-0.007110243732984371,-0.002648688716447055,-0.044873288414631465,0.07929557347002776,0.6802384959838006
5.218781215903231,-1.628048530064833,8.482962768929019,-0.007110243732984371,-0.002648688716447055,-0.044873288414631465,0.07222556055249148,0.6804439968090699
5.211670972170247,-1.63069721878128,8.438089480514387,-0.007110243732984371,-0.002648688716447055,-0.044873288414631465,0.07222556055249148,0.6751367731906647
5.204560728437263,-1.633345907497727,8.393216192099755,-0.007110243732984371,-0.002648688716447055,-0.044873288414631465,0.06516067576840698,0.6874903192939521
5.197450484704279,-1.635994596214174,8.348342903685124,-0.007110243732984371,-0.002648688716447055,-0.044873288414631465,0.09010515602036025,0.6881721249796428
5.190340240971295,-1.638643284930621,8.303469615270492,-0.007110243732984371,-0.002648688716447055,-0.044873288414631465,0.09010515602036025,0.6842220724065627
5.183229997238311,-1.641291973647068,8.25859632685586,-0.007110243732984371,-0.002648688716447055,-0.044873288414631465,0.09010515602036025,0.6936858429281926
5.176119753505327,-1.6439406623635149,8.213723038441229,-0.007110243732984371,-0.002648688716447055,-0.044873288414631465,0.0837675536534082,0.6798828194399581
5.169009509772343,-1.6465893510799618,8.168849750026597,-0.007110243732984371,-0.002648688716447055,-0.044873288414631465,0.0837675536534082,0.6812404389279653
5.1618992660393594,-1.6492380397964088,8.123976461611965,-0.007110243732984371,-0.002648688716447055,-0.044873288414631465,0.0837675536534082,0.6750379991091232
5.1547890223063755,-1.6518867285128558,8.079103173197334,-0.007110243732984371,-0.002648688716447055,-0.044873288414631465,0.08284336220493714,0.6564119643888996
5.1476787785733915,-1.6545354172293028,8.034229884782702,-0.007110243732984371,-0.002648688716447055,-0.044873288414631465,0.08950676462524276,0.6550081729624688
5.1405685348404075,-1.6571841059457497,7.98935659636807,-0.007110243732984371,-0.002648688716447055,-0.044873288414631465,0.09414402956305663,0.6523245547990457
5.133458291107424,-1.6598327946621967,7.944483307953439,-0.007110243732984371,-0.002648688716447055,-0.044873288414631465,0.09414402956305663,0.6374687405085261
5.12634804737444,-1.6624814833786437,7.899610019538807,-0.007110243732984371,-0.002648688716447055,-0.044873288414631465,0.09414402956305663,0.6340261287423268
5.119237803641456,-1.6651301720950906,7.854736731124175,-0.007110243732984371,-0.002648688716447055,-0.044873288414631465,0.09414402956305663,0.640145365216474
5.112127559908472,-1.6677788608115376,7.809863442709544,-0.007110243732984371,-0.002648688716447055,-0.044873288414631465,0.11069976491609371,0.6140591534841778
5.105017316175488,-1.6704275495279846,7.764990154294912,-0.007110243732984371,-0.002648688716447055,-0.044873288414631465,0.11069976491609371,0.6109807164555282
5.097907072442504,-1.6730762382444315,7.72011686588028,-0.007110243732984371,-0.002648688716447055,-0.044873288414631465,0.11069976491609371,0.6185833085772912
5.09079682870952,-1.6757249269608785,7.675243577465649,-0.007110243732984371,-0.002648688716447055,-0.044873288414631465,0.10160886995266587,0.610874514012663
5.083686584976536,-1.6783736156773255,7.630370289051017,-0.007110243732984371,-0.002648688716447055,-0.044873288414631465,0.09941100757557032,0.6220549874468554
5.076576341243552,-1.6810223043937724,7.585497000636385,-0.007110243732984371,-0.002648688716447055,-0.044873288414631465,0.09446481380025978,0.5999000219142815
5.069466097510568,-1.6836709931102194,7.540623712221754,-0.007110243732984371,-0.002648688716447055,-0.044873288414631465,0.10120399223070065,0.6034445434976705
5.062355853777584,-1.6863196818266664,7.495750423807122,-0.007110243732984371,-0.002648688716447055,-0.044873288414631465,0.09513824370511116,0.6036447501456393
5.0552456100446,-1.6889683705431133,7.45087713539249,-0.007110243732984371,-0.002648688716447055,-0.044873288414631465,0.08940260881949794,0.615181324820863
5.048135366311616,-1.6916170592595603,7.406003846977859,-0.007110243732984371,-0.002648688716447055,-0.044873288414631465,0.09515577076858438,0.6087911455950348
5.041025122578632,-1.6942657479760073,7.361130558563227,-0.007110243732984371,-0.002648688716447055,-0.044873288414631465,0.09979542337298185,0.6052449465025094
5.033914878845648,-1.6969144366924542,7.316257270148595,-0.007110243732984371,-0.002648688716447055,-0.044873288414631465,0.09485524723593858,0.6197270792090077
5.026804635112664,-1.6995631254089012,7.271383981733964,-0.007110243732984371,-0.002648688716447055,-0.044873288414631465,0.10652729301647013,0.6183199032163007
5.01969439137968,-1.7022118141253482,7.226510693319332,-0.007110243732984371,-0.002648688716447055,-0.044873288414631465,0.1084931449844549,0.611672143091364
5.012584147646696,-1.7048605028417951,7.1816374049047,-0.007110243732984371,-0.002648688716447055,-0.044873288414631465,0.11094069164857323,0.5952094426426907
5.005473903913712,-1.707509191558242,7.136764116490069,-0.007110243732984371,-0.002648688716447055,-0.044873288414631465,0.11656064987223419,0.5986985285550347
4.998363660180728,-1.710157880274689,7.091890828075437,-0.007110243732984371,-0.002648688716447055,-0.044873288414631465,0.11656064987223419,0.6093049028002798
4.991253416447744,-1.712806568991136,7.047017539660805,-0.007110243732984371,-0.002648688716447055,-0.044873288414631465,0.11656064987223419,0.5955673356260902
4.98414317271476,-1.715455257707583,7.002144251246174,-0.007110243732984371,-0.002648688716447055,-0.044873288414631465,0.11701893846280505,0.5842000328223761
4.977032928981776,-1.71810394642403,6.957270962831542,-0.007110243732984371,-0.002648688716447055,-0.044873288414631465,0.11701893846280505,0.5856020634765465
4.969922685248792,-1.720752635140477,6.91239767441691,-0.007110243732984371,-0.002648688716447055,-0.044873288414631465,0.11701893846280505,0.5819250196872411
4.962812441515808,-1.723401323856924,6.8675243860022785,-0.007110243732984371,-0.002648688716447055,-0.044873288414631465,0.11701893846280505,0.5843870321720915
4.955702197782824,-1.7260500125733709,6.822651097587647,-0.007110243732984371,-0.002648688716447055,-0.044873288414631465,0.11701893846280505,0.5739208972039866
4.94859195404984,-1.7286987012898178,6.777777809173015,-0.007110243732984371,-0.002648688716447055,-0.044873288414631465,0.11759367405092666,0.5804940111863667
4.9414817103168565,-1.7313473900062648,6.7329045207583835,-0.007110243732984371,-0.002648688716447055,-0.044873288414631465,0.11433911750472853,0.5918930188306649
4.9343714665838725,-1.7339960787227118,6.688031232343752,-0.007110243732984371,-0.002648688716447055,-0.044873288414631465,0.13121926619773613,0.5952522516870911
4.9272612228508885,-1.7366447674391587,6.64315794392912,-0.007110243732984371,-0.002648688716447055,-0.044873288414631465,0.13841826334324758,0.6024605951957099
4.9201509791179046,-1.7392934561556057,6.5982846555144885,-0.007110243732984371,-0.002648688716447055,-0.044873288414631465,0.13841826334324758,0.6006582364478411
4.913040735384921,-1.7419421448720527,6.553411367099857,-0.007110243732984371,-0.002648688716447055,-0.044873288414631465,0.14726603535803354,0.6178636372702438
4.905930491651937,-1.7445908335884996,6.508538078685225,-0.007110243732984371,-0.002648688716447055,-0.044873288414631465,0.14961280278346306,0.6231865617500435
4.898820247918953,-1.7472395223049466,6.4636647902705935,-0.007110243732984371,-0.002648688716447055,-0.044873288414631465,0.14961280278346306,0.6058893565550718
4.891710004185969,-1.7498882110213936,6.418791501855962,-0.007110243732984371,-0.002648688716447055,-0.044873288414631465,0.14961280278346306,0.6084128503842078
4.884599760452985,-1.7525368997378405,6.37391821344133,-0.007110243732984371,-0.002648688716447055,-0.044873288414631465,0.14961280278346306,0.6007047467496126
4.877489516720001,-1.7551855884542875,6.3290449250266985,-0.007110243732984371,-0.002648688716447055,-0.044873288414631465,0.14961280278346306,0.5956460513685133
4.870379272987017,-1.7578342771707345,6.284171636612067,-0.007110243732984371,-0.002648688716447055,-0.044873288414631465,0.14857071538107366,0.6001439845817507
4.863269029254033,-1.7604829658871815,6.239298348197435,-0.007110243732984371,-0.002648688716447055,-0.044873288414631465,0.14486861357827333,0.5802192096044464
4.856158785521049,-1.7631316546036284,6.1944250597828034,-0.007110243732984371,-0.002648688716447055,-0.044873288414631465,0.15996096905141072,0.5842580440396169
4.849048541788065,-1.7657803433200754,6.149551771368172,-0.007110243732984371,-0.002648688716447055,-0.044873288414631465,0.1503477424830029,0.5770767115264233
4.841938298055081,-1.7684290320365224,6.10467848295354,-0.007110243732984371,-0.002648688716447055,-0.044873288414631465,0.1503477424830029,0.5786237906794683
4.834828054322097,-1.7710777207529693,6.059805194538908,-0.007110243732984371,-0.002648688716447055,-0.044873288414631465,0.15476636608287492,0.578122780380681
4.827717810589113,-1.7737264094694163,6.014931906124277,-0.007110243732984371,-0.002648688716447055,-0.044873288414631465,0.1589231150128047,0.5916288531667409
4.820607566856129,-1.7763750981858633,5.970058617709645,-0.007110243732984371,-0.002648688716447055,-0.044873288414631465,0.1697467424763735,0.5892980772035433
4.813497323123145,-1.7790237869023102,5.925185329295013,-0.007110243732984371,-0.002648688716447055,-0.044873288414631465,0.1711444335296203,0.5786462927435032
4.806387079390161,-1.7816724756187572,5.880312040880382,-0.007110243732984371,-0.002648688716447055,-0.044873288414631465,0.16569395204973925,0.5981705357779911
4.799276835657177,-1.7843211643352042,5.83543875246575,-0.007110243732984371,-0.002648688716447055,-0.044873288414631465,0.16569395204973925,0.5930340486714727
4.792166591924193,-1.7869698530516511,5.790565464051118,-0.007110243732984371,-0.002648688716447055,-0.044873288414631465,0.1786678380340411,0.5926427516183501
4.785056348191209,-1.789618541768098,5.745692175636487,-0.007110243732984371,-0.002648688716447055,-0.044873288414631465,0.1786678380340411,0.6151376834328857
4.777946104458225,-1.792267230484545,5.700818887221855,-0.007110243732984371,-0.002648688716447055,-0.044873288414631465,0.1786678380340411,0.605529208646464
4.808181553689888,-1.8014857414798147,5.750543362558047,0.03023544923166256,-0.009218510995269597,0.0497244753361919,0.17621043120639265,0.6084440502168528
4.838417002921551,-1.8107042524750843,5.800267837894239,0.03023544923166256,-0.009218510995269597,0.0497244753361919,0.17621043120639265,0.6076188052678589
4.8686524521532135,-1.8199227634703539,5.849992313230431,0.03023544923166256,-0.009218510995269597,0.0497244753361919,0.17441228204355233,0.6100111272290898
4.898887901384876,-1.8291412744656235,5.899716788566623,0.03023544923166256,-0.009218510995269597,0.0497244753361919,0.18416994862603733,0.6176867443315629
4.929123350616539,-1.838359785460893,5.949441263902815,0.03023544923166256,-0.009218510995269597,0.0497244753361919,0.18416994862603733,0.6129032601461817
4.959358799848202,-1.8475782964561627,5.999165739239007,0.03023544923166256,-0.009218510995269597,0.0497244753361919,0.19175203178606856,0.6236552967151848
4.989594249079865,-1.8567968074514323,6.0488902145751995,0.03023544923166256,-0.009218510995269597,0.0497244753361919,0.19175203178606856,0.6238034011332008
5.019829698311527,-1.8660153184467019,6.0986146899113916,0.03023544923166256,-0.009218510995269597,0.0497244753361919,0.19175203178606856,0.6339291547245122
5.05006514754319,-1.8752338294419715,6.148339165247584,0.03023544923166256,-0.009218510995269597,0.0497244753361919,0.19175203178606856,0.6240279820789096
5.080300596774853,-1.884452340437241,6.198063640583776,0.03023544923166256,-0.009218510995269597,0.0497244753361919,0.19175203178606856,0.6138237452361794
5.110536046006516,-1.8936708514325107,6.247788115919968,0.03023544923166256,-0.009218510995269597,0.0497244753361919,0.19175203178606856,0.6082048519737572
5.1407714952381784,-1.9028893624277803,6.29751259125616,0.03023544923166256,-0.009218510995269597,0.0497244753361919,0.19175203178606856,0.60676159943001
5.171006944469841,-1.9121078734230499,6.347237066592352,0.03023544923166256,-0.009218510995269597,0.0497244753361919,0.19175203178606856,0.6153566581331392
5.201242393701504,-1.9213263844183195,6.396961541928544,0.03023544923166256,-0.009218510995269597,0.0497244753361919,0.19175203178606856,0.6036417734871721
5.231477842933167,-1.930544895413589,6.446686017264736,0.03023544923166256,-0.009218510995269597,0.0497244753361919,0.19175203178606856,0.6025870079090976
5.2617132921648295,-1.9397634064088587,6.496410492600928,0.03023544923166256,-0.009218510995269597,0.0497244753361919,0.19175203178606856,0.6091986856031051
5.291948741396492,-1.9489819174041283,6.54613496793712,0.03023544923166256,-0.009218510995269597,0.0497244753361919,0.19399895755568766,0.6136259520452739
5.322184190628155,-1.958200428399398,6.595859443273312,0.03023544923166256,-0.009218510995269597,0.0497244753361919,0.19592615988658715,0.6070390888334464
5.352419639859818,-1.9674189393946675,6.645583918609504,0.03023544923166256,-0.009218510995269597,0.0497244753361919,0.19884145046239635,0.5954922923698682
5.382655089091481,-1.976637450389937,6.695308393945696,0.03023544923166256,-0.009218510995269597,0.0497244753361919,0.19713167246598592,0.5862194532847581
5.412890538323143,-1.9858559613852067,6.745032869281888,0.03023544923166256,-0.009218510995269597,0.0497244753361919,0.18324647814356987,0.590748349556481
5.443125987554806,-1.9950744723804763,6.7947573446180805,0.03023544923166256,-0.009218510995269597,0.0497244753361919,0.17397119526975782,0.5878774448394354
5.473361436786469,-2.0042929833757457,6.8444818199542725,0.03023544923166256,-0.009218510995269597,0.0497244753361919,0.1726380568378169,0.5979874701493798
5.503596886018132,-2.013511494371015,6.894206295290465,0.03023544923166256,-0.009218510995269597,0.0497244753361919,0.18806332891404215,0.5904646597677111
5.5338323352497945,-2.0227300053662844,6.943930770626657,0.03023544923166256,-0.009218510995269597,0.0497244753361919,0.1812312181129885,0.5895509220333357
5.564067784481457,-2.031948516361554,6.993655245962849,0.03023544923166256,-0.009218510995269597,0.0497244753361919,0.19017613945222914,0.6026340223020875
5.59430323371312,-2.041167027356823,7.043379721299041,0.03023544923166256,-0.009218510995269597,0.0497244753361919,0.18391422367908938,0.6028598439961633
5.624538682944783,-2.0503855383520926,7.093104196635233,0.03023544923166256,-0.009218510995269597,0.0497244753361919,0.18236322141996172,0.6142039958141033
5.6547741321764455,-2.059604049347362,7.142828671971425,0.03023544923166256,-0.009218510995269597,0.0497244753361919,0.18284288624589673,0.6311200162160729
5.685009581408108,-2.0688225603426313,7.192553147307617,0.03023544923166256,-0.009218510995269597,0.0497244753361919,0.1738890311034257,0.6290501144557985
5.715245030639771,-2.0780410713379007,7.242277622643809,0.03023544923166256,-0.009218510995269597,0.0497244753361919,0.16781082883326798,0.6237724226214043
5.745480479871434,-2.08725958233317,7.292002097980001,0.03023544923166256,-0.009218510995269597,0.0497244753361919,0.16997187421703966,0.6227011154172524
5.775715929103097,-2.0964780933284395,7.341726573316193,0.03023544923166256,-0.009218510995269597,0.0497244753361919,0.16802329286854537,0.6146903822376021
5.805951378334759,-2.105696604323709,7.391451048652385,0.03023544923166256,-0.009218510995269597,0.0497244753361919,0.16930209995224754,0.6196245254690582
5.836186827566422,-2.1149151153189782,7.441175523988577,0.03023544923166256,-0.009218510995269597,0.0497244753361919,0.16673355990427724,0.6310800031632208
5.866422276798085,-2.1241336263142476,7.490899999324769,0.03023544923166256,-0.009218510995269597,0.0497244753361919,0.1678992305639196,0.6262893551918102
5.896657726029748,-2.133352137309517,7.540624474660961,0.03023544923166256,-0.009218510995269597,0.0497244753361919,0.16772043525461539,0.6395279197334973
5.9268931752614105,-2.1425706483047864,7.5903489499971535,0.03023544923166256,-0.009218510995269597,0.0497244753361919,0.1642899241324977,0.6592243481014202
5.957128624493073,-2.1517891593000558,7.6400734253333455,0.03023544923166256,-0.009218510995269597,0.0497244753361919,0.1579051939016685,0.6565910165489767
5.987364073724736,-2.161007670295325,7.689797900669538,0.03023544923166256,-0.009218510995269597,0.0497244753361919,0.15352519471283127,0.6690218618222249
6.017599522956399,-2.1702261812905945,7.73952237600573,0.03023544923166256,-0.009218510995269597,0.0497244753361919,0.14813674995760912,0.6704243331822138
6.0478349721880615,-2.179444692285864,7.789246851341922,0.03023544923166256,-0.009218510995269597,0.0497244753361919,0.14186724288331357,0.6545034478432934
6.078070421419724,-2.1886632032811333,7.838971326678114,0.03023544923166256,-0.009218510995269597,0.0497244753361919,0.1362821137537141,0.6540215028177775
6.108305870651387,-2.1978817142764027,7.888695802014306,0.03023544923166256,-0.009218510995269597,0.0497244753361919,0.14049974930166012,0.6772788108880538
6.13854131988305,-2.207100225271672,7.938420277350498,0.03023544923166256,-0.009218510995269597,0.0497244753361919,0.13759321459090362,0.6927652966570497
6.168776769114713,-2.2163187362669414,7.98814475268669,0.03023544923166256,-0.009218510995269597,0.0497244753361919,0.13841271761767282,0.7041600223729364
6.199012218346375,-2.225537247262211,8.037869228022881,0.03023544923166256,-0.009218510995269597,0.0497244753361919,0.13419127113130702,0.6978115798585119
6.229247667578038,-2.23475575825748,8.087593703359072,0.03023544923166256,-0.009218510995269597,0.0497244753361919,0.12965965389128284,0.6988363973076068
6.259483116809701,-2.2439742692527496,8.137318178695264,0.03023544923166256,-0.009218510995269597,0.0497244753361919,0.12345701220922703,0.6827437962115447
6.289718566041364,-2.253192780248019,8.187042654031455,0.03023544923166256,-0.009218510995269597,0.0497244753361919,0.12395444024784702,0.6789694219543012
6.3199540152730265,-2.2624112912432883,8.236767129367646,0.03023544923166256,-0.009218510995269597,0.0497244753361919,0.12607474976796312,0.6711920374525472
6.350189464504689,-2.2716298022385577,8.286491604703837,0.03023544923166256,-0.009218510995269597,0.0497244753361919,0.12446284354348582,0.6547486586114006
6.380424913736352,-2.280848313233827,8.336216080040028,0.03023544923166256,-0.009218510995269597,0.0497244753361919,0.1252598956167242,0.6501073520826893
6.410660362968015,-2.2900668242290965,8.38594055537622,0.03023544923166256,-0.009218510995269597,0.0497244753361919,0.1255685187175187,0.6554818044311741
6.4408958121996776,-2.299285335224366,8.43566503071241,0.03023544923166256,-0.009218510995269597,0.0497244753361919,0.12172853132538658,0.6577662088382571
6.47113126143134,-2.3085038462196352,8.485389506048602,0.03023544923166256,-0.009218510995269597,0.0497244753361919,0.12824428905596946,0.6614518266287752
6.501366710663003,-2.3177223572149046,8.535113981384793,0.03023544923166256,-0.009218510995269597,0.0497244753361919,0.121759259994007,0.66287874093086
6.531602159894666,-2.326940868210174,8.584838456720984,0.03023544923166256,-0.009218510995269597,0.0497244753361919,0.1264547930096458,0.6551657943544927
6.561837609126329,-2.3361593792054434,8.634562932057175,0.03023544923166256,-0.009218510995269597,0.0497244753361919,0.12387262087970768,0.649795702906404
6.592073058357991,-2.3453778902007127,8.684287407393366,0.03023544923166256,-0.009218510995269597,0.0497244753361919,0.12267155199961459,0.6551305503281803
6.622308507589654,-2.354596401195982,8.734011882729558,0.03023544923166256,-0.009218510995269597,0.0497244753361919,0.1192859131003983,0.6464308325673309
6.652543956821317,-2.3638149121912515,8.783736358065749,0.03023544923166256,-0.009218510995269597,0.0497244753361919,0.12323161510030656,0.6390874873215183
