theta,phi,z,dtheta,dphi,dz,ecg,eda
5.610005784868826,-0.5278510093205484,8.391062107520487,0.0,0.0,0.0,0.08248788922219187,0.029160811359571166
5.607512021424181,-0.514814326542544,8.429860397367685,-0.0024937634446447216,0.013036682778004413,0.038798289847197825,0.08248788922219187,0.029160811359571166
5.605018257979537,-0.5017776437645396,8.468658687214884,-0.0024937634446447216,0.013036682778004413,0.038798289847197825,0.08248788922219187,0.029160811359571166
5.602524494534892,-0.4887409609865352,8.507456977062082,-0.0024937634446447216,0.013036682778004413,0.038798289847197825,0.08248788922219187,0.029160811359571166
5.600030731090247,-0.4757042782085308,8.54625526690928,-0.0024937634446447216,0.013036682778004413,0.038798289847197825,0.08248788922219187,0.029160811359571166
5.597536967645603,-0.4626675954305264,8.58505355675648,-0.0024937634446447216,0.013036682778004413,0.038798289847197825,0.08248788922219187,0.029160811359571166
5.595043204200958,-0.449630912652522,8.623851846603678,-0.0024937634446447216,0.013036682778004413,0.038798289847197825,0.07413899065506654,0.029160811359571166
5.592549440756313,-0.43659422987451757,8.662650136450877,-0.0024937634446447216,0.013036682778004413,0.038798289847197825,0.08938606654017522,0.029160811359571166
5.5900556773116685,-0.42355754709651317,8.701448426298075,-0.0024937634446447216,0.013036682778004413,0.038798289847197825,0.08938606654017522,0.029160811359571166
5.587561913867024,-0.41052086431850876,8.740246716145274,-0.0024937634446447216,0.013036682778004413,0.038798289847197825,0.08938606654017522,0.029160811359571166
5.585068150422379,-0.39748418154050436,8.779045005992472,-0.0024937634446447216,0.013036682778004413,0.038798289847197825,0.08938606654017522,0.029160811359571166
5.5825743869777344,-0.38444749876249995,8.81784329583967,-0.0024937634446447216,0.013036682778004413,0.038798289847197825,0.08938606654017522,0.029160811359571166
5.58008062353309,-0.37141081598449555,8.85664158568687,-0.0024937634446447216,0.013036682778004413,0.038798289847197825,0.1033564817954597,0.029160811359571166
5.577586860088445,-0.35837413320649114,8.895439875534068,-0.0024937634446447216,0.013036682778004413,0.038798289847197825,0.1033564817954597,0.029160811359571166
5.5750930966438,-0.34533745042848674,8.934238165381267,-0.0024937634446447216,0.013036682778004413,0.038798289847197825,0.1033564817954597,0.029160811359571166
5.572599333199156,-0.33230076765048233,8.973036455228465,-0.0024937634446447216,0.013036682778004413,0.038798289847197825,0.1033564817954597,0.029160811359571166
5.570105569754511,-0.3192640848724779,9.011834745075664,-0.0024937634446447216,0.013036682778004413,0.038798289847197825,0.09409827443673974,0.029160811359571166
5.567611806309866,-0.3062274020944735,9.050633034922862,-0.0024937634446447216,0.013036682778004413,0.038798289847197825,0.09409827443673974,0.029160811359571166
5.565118042865222,-0.2931907193164691,9.08943132477006,-0.0024937634446447216,0.013036682778004413,0.038798289847197825,0.09409827443673974,0.029160811359571166
5.562624279420577,-0.2801540365384647,9.12822961461726,-0.0024937634446447216,0.013036682778004413,0.038798289847197825,0.09409827443673974,0.029160811359571166
5.560130515975932,-0.2671173537604603,9.167027904464458,-0.0024937634446447216,0.013036682778004413,0.038798289847197825,0.09409827443673974,0.029160811359571166
5.5576367525312875,-0.2540806709824559,9.205826194311657,-0.0024937634446447216,0.013036682778004413,0.038798289847197825,0.09409827443673974,0.029160811359571166
5.555142989086643,-0.2410439882044515,9.244624484158855,-0.0024937634446447216,0.013036682778004413,0.038798289847197825,0.09409827443673974,0.029160811359571166
5.552649225641998,-0.2280073054264471,9.283422774006054,-0.0024937634446447216,0.013036682778004413,0.038798289847197825,0.09409827443673974,0.029160811359571166
5.5501554621973535,-0.2149706226484427,9.322221063853252,-0.0024937634446447216,0.013036682778004413,0.038798289847197825,0.09409827443673974,0.029160811359571166
5.547661698752709,-0.20193393987043828,9.361019353700451,-0.0024937634446447216,0.013036682778004413,0.038798289847197825,0.09409827443673974,0.029160811359571166
5.545167935308064,-0.18889725709243388,9.39981764354765,-0.0024937634446447216,0.013036682778004413,0.038798289847197825,0.09409827443673974,0.029160811359571166
5.542674171863419,-0.17586057431442947,9.438615933394848,-0.0024937634446447216,0.013036682778004413,0.038798289847197825,0.09353696557953138,0.029160811359571166
5.540180408418775,-0.16282389153642507,9.477414223242047,-0.0024937634446447216,0.013036682778004413,0.038798289847197825,0.09091724855784053,0.029160811359571166
5.53768664497413,-0.14978720875842066,9.516212513089245,-0.0024937634446447216,0.013036682778004413,0.038798289847197825,0.08448145509242572,0.029160811359571166
5.535192881529485,-0.13675052598041626,9.555010802936444,-0.0024937634446447216,0.013036682778004413,0.038798289847197825,0.08448145509242572,0.029160811359571166
5.532699118084841,-0.12371384320241184,9.593809092783642,-0.0024937634446447216,0.013036682778004413,0.038798289847197825,0.08448145509242572,0.029160811359571166
5.530205354640196,-0.11067716042440742,9.632607382630841,-0.0024937634446447216,0.013036682778004413,0.038798289847197825,0.08448145509242572,0.029160811359571166
5.527711591195551,-0.097640477646403,9.67140567247804,-0.0024937634446447216,0.013036682778004413,0.038798289847197825,0.08448145509242572,0.029160811359571166
5.5252178277509065,-0.08460379486839859,9.710203962325238,-0.0024937634446447216,0.013036682778004413,0.038798289847197825,0.08448145509242572,0.029160811359571166
5.522724064306262,-0.07156711209039417,9.749002252172437,-0.0024937634446447216,0.013036682778004413,0.038798289847197825,0.08448145509242572,0.029160811359571166
5.520230300861617,-0.058530429312389755,9.787800542019635,-0.0024937634446447216,0.013036682778004413,0.038798289847197825,0.08448145509242572,0.029160811359571166
5.5177365374169725,-0.04549374653438534,9.826598831866834,-0.0024937634446447216,0.013036682778004413,0.038798289847197825,0.08448145509242572,0.029160811359571166
5.515242773972328,-0.03245706375638093,9.865397121714032,-0.0024937634446447216,0.013036682778004413,0.038798289847197825,0.08448145509242572,0.029160811359571166
5.512749010527683,-0.01942038097837652,9.904195411561231,-0.0024937634446447216,0.013036682778004413,0.038798289847197825,0.08448145509242572,0.029160811359571166
5.510255247083038,-0.006383698200372106,9.94299370140843,-0.0024937634446447216,0.013036682778004413,0.038798289847197825,0.0767686028796218,0.029160811359571166
5.507761483638394,0.006652984577632307,9.981791991255628,-0.0024937634446447216,0.013036682778004413,0.038798289847197825,0.0767686028796218,0.029160811359571166
5.489284253068927,0.007444594717327875,9.926582682003895,-0.018477230569466575,0.0007916101396955676,-0.055209309251732355,0.0767686028796218,0.029160811359571166
5.470807022499461,0.008236204857023442,9.871373372752162,-0.018477230569466575,0.0007916101396955676,-0.055209309251732355,0.0767686028796218,0.029160811359571166
5.452329791929994,0.00902781499671901,9.816164063500429,-0.018477230569466575,0.0007916101396955676,-0.055209309251732355,0.0767686028796218,0.029160811359571166
5.433852561360528,0.009819425136414577,9.760954754248695,-0.018477230569466575,0.0007916101396955676,-0.055209309251732355,0.0767686028796218,0.029160811359571166
5.415375330791061,0.010611035276110145,9.705745444996962,-0.018477230569466575,0.0007916101396955676,-0.055209309251732355,0.0767686028796218,0.029160811359571166
5.396898100221595,0.011402645415805712,9.650536135745229,-0.018477230569466575,0.0007916101396955676,-0.055209309251732355,0.0767686028796218,0.029160811359571166
5.378420869652128,0.01219425555550128,9.595326826493496,-0.018477230569466575,0.0007916101396955676,-0.055209309251732355,0.0767686028796218,0.029160811359571166
5.359943639082662,0.012985865695196847,9.540117517241763,-0.018477230569466575,0.0007916101396955676,-0.055209309251732355,0.0767686028796218,0.029160811359571166
5.341466408513195,0.013777475834892415,9.48490820799003,-0.018477230569466575,0.0007916101396955676,-0.055209309251732355,0.0767686028796218,0.029160811359571166
5.322989177943729,0.014569085974587982,9.429698898738296,-0.018477230569466575,0.0007916101396955676,-0.055209309251732355,0.06970287875591002,0.029160811359571166
5.304511947374262,0.01536069611428355,9.374489589486563,-0.018477230569466575,0.0007916101396955676,-0.055209309251732355,0.06970287875591002,0.029160811359571166
5.286034716804796,0.016152306253979117,9.31928028023483,-0.018477230569466575,0.0007916101396955676,-0.055209309251732355,0.06012998902496437,0.029160811359571166
5.267557486235329,0.016943916393674686,9.264070970983097,-0.018477230569466575,0.0007916101396955676,-0.055209309251732355,0.06012998902496437,0.029160811359571166
5.249080255665863,0.017735526533370256,9.208861661731364,-0.018477230569466575,0.0007916101396955676,-0.055209309251732355,0.057395380675788116,0.029160811359571166
5.230603025096396,0.018527136673065825,9.15365235247963,-0.018477230569466575,0.0007916101396955676,-0.055209309251732355,0.06929184169827861,0.029160811359571166
5.21212579452693,0.019318746812761394,9.098443043227897,-0.018477230569466575,0.0007916101396955676,-0.055209309251732355,0.06536854137031972,0.029160811359571166
5.193648563957463,0.020110356952456963,9.043233733976164,-0.018477230569466575,0.0007916101396955676,-0.055209309251732355,0.0715219799105347,0.029160811359571166
5.175171333387997,0.020901967092152533,8.988024424724431,-0.018477230569466575,0.0007916101396955676,-0.055209309251732355,0.0715219799105347,0.029160811359571166
5.1566941028185305,0.021693577231848102,8.932815115472698,-0.018477230569466575,0.0007916101396955676,-0.055209309251732355,0.0715219799105347,0.029160811359571166
5.138216872249064,0.02248518737154367,8.877605806220965,-0.018477230569466575,0.0007916101396955676,-0.055209309251732355,0.0739788076870698,0.029160811359571166
5.1197396416795975,0.02327679751123924,8.822396496969231,-0.018477230569466575,0.0007916101396955676,-0.055209309251732355,0.0739788076870698,0.029160811359571166
5.101262411110131,0.02406840765093481,8.767187187717498,-0.018477230569466575,0.0007916101396955676,-0.055209309251732355,0.0739788076870698,0.029160811359571166
5.0827851805406645,0.02486001779063038,8.711977878465765,-0.018477230569466575,0.0007916101396955676,-0.055209309251732355,0.06494596723787247,0.029160811359571166
5.064307949971198,0.025651627930325948,8.656768569214032,-0.018477230569466575,0.0007916101396955676,-0.055209309251732355,0.05884052670422775,0.029160811359571166
5.045830719401732,0.026443238070021517,8.601559259962299,-0.018477230569466575,0.0007916101396955676,-0.055209309251732355,0.058628912214597734,0.017110378119387926
5.027353488832265,0.027234848209717086,8.546349950710566,-0.018477230569466575,0.0007916101396955676,-0.055209309251732355,0.08196317360745146,0.014439634423939982
5.008876258262799,0.028026458349412656,8.491140641458832,-0.018477230569466575,0.0007916101396955676,-0.055209309251732355,0.08104643597046345,0.015412255186942853
4.990399027693332,0.028818068489108225,8.4359313322071,-0.018477230569466575,0.0007916101396955676,-0.055209309251732355,0.08342775875632784,0.01570918904652891
4.971921797123866,0.029609678628803794,8.380722022955366,-0.018477230569466575,0.0007916101396955676,-0.055209309251732355,0.07674782448064658,0.016054190654623768
4.953444566554399,0.030401288768499363,8.325512713703633,-0.018477230569466575,0.0007916101396955676,-0.055209309251732355,0.08703296327040402,0.016450866048070403
4.934967335984933,0.031192898908194933,8.2703034044519,-0.018477230569466575,0.0007916101396955676,-0.055209309251732355,0.08703296327040402,0.016902821263711804
4.916490105415466,0.0319845090478905,8.215094095200167,-0.018477230569466575,0.0007916101396955676,-0.055209309251732355,0.08703296327040402,0.017413662338390944
4.898012874846,0.032776119187586064,8.159884785948433,-0.018477230569466575,0.0007916101396955676,-0.055209309251732355,0.08703296327040402,0.017986995308950822
4.879535644276533,0.03356772932728163,8.1046754766967,-0.018477230569466575,0.0007916101396955676,-0.055209309251732355,0.08337885941166666,0.018626426212234416
4.861058413707067,0.034359339466977196,8.049466167444967,-0.018477230569466575,0.0007916101396955676,-0.055209309251732355,0.09696335946497092,0.019335561085084708
4.8425811831376,0.03515094960667276,7.994256858193235,-0.018477230569466575,0.0007916101396955676,-0.055209309251732355,0.09696335946497092,0.020118005964344685
4.824103952568134,0.03594255974636833,7.939047548941502,-0.018477230569466575,0.0007916101396955676,-0.055209309251732355,0.09696335946497092,0.02097736688685733
4.805626721998667,0.03673416988606389,7.88383823968977,-0.018477230569466575,0.0007916101396955676,-0.055209309251732355,0.09696335946497092,0.02191724988946563
4.787149491429201,0.03752578002575946,7.828628930438038,-0.018477230569466575,0.0007916101396955676,-0.055209309251732355,0.09696335946497092,0.022941261009012563
4.768672260859734,0.038317390165455024,7.773419621186306,-0.018477230569466575,0.0007916101396955676,-0.055209309251732355,0.09187773955971329,0.02405300628234112
4.750195030290268,0.03910900030515059,7.718210311934573,-0.018477230569466575,0.0007916101396955676,-0.055209309251732355,0.09187773955971329,0.025256091746294285
4.731717799720801,0.039900610444846156,7.663001002682841,-0.018477230569466575,0.0007916101396955676,-0.055209309251732355,0.09981219596267817,0.026554123437715033
4.713240569151335,0.04069222058454172,7.607791693431109,-0.018477230569466575,0.0007916101396955676,-0.055209309251732355,0.10321709022343172,0.02795070739344636
4.694763338581868,0.04148383072423729,7.552582384179376,-0.018477230569466575,0.0007916101396955676,-0.055209309251732355,0.10321709022343172,0.02944944965033125
4.676286108012402,0.04227544086393285,7.497373074927644,-0.018477230569466575,0.0007916101396955676,-0.055209309251732355,0.10299955315939938,0.031053956245212674
4.657808877442935,0.04306705100362842,7.442163765675912,-0.018477230569466575,0.0007916101396955676,-0.055209309251732355,0.10299955315939938,0.03276783321493363
4.639331646873469,0.043858661143323985,7.38695445642418,-0.018477230569466575,0.0007916101396955676,-0.055209309251732355,0.10299955315939938,0.03459468659633709
4.620854416304002,0.04465027128301955,7.331745147172447,-0.018477230569466575,0.0007916101396955676,-0.055209309251732355,0.10299955315939938,0.03653812242626605
4.602377185734536,0.045441881422715116,7.276535837920715,-0.018477230569466575,0.0007916101396955676,-0.055209309251732355,0.10299955315939938,0.03860174674156349
4.583899955165069,0.04623349156241068,7.221326528668983,-0.018477230569466575,0.0007916101396955676,-0.055209309251732355,0.10299955315939938,0.04078916557907239
4.565422724595603,0.04702510170210625,7.16611721941725,-0.018477230569466575,0.0007916101396955676,-0.055209309251732355,0.10086798046340995,0.04310398497563571
4.5469454940261365,0.047816711841801814,7.110907910165518,-0.018477230569466575,0.0007916101396955676,-0.055209309251732355,0.12511277988442474,0.045549810968096446
4.52846826345667,0.04860832198149738,7.055698600913786,-0.018477230569466575,0.0007916101396955676,-0.055209309251732355,0.12511277988442474,0.048130249593297605
4.5099910328872035,0.049399932121192945,7.000489291662054,-0.018477230569466575,0.0007916101396955676,-0.055209309251732355,0.12511277988442474,0.050848906888082156
4.491513802317737,0.05019154226088851,6.945279982410321,-0.018477230569466575,0.0007916101396955676,-0.055209309251732355,0.12079658711981234,0.05370938888929308
4.4730365717482705,0.05098315240058408,6.890070673158589,-0.018477230569466575,0.0007916101396955676,-0.055209309251732355,0.11477263585824708,0.05671530163377338
4.454559341178804,0.05177476254027964,6.834861363906857,-0.018477230569466575,0.0007916101396955676,-0.055209309251732355,0.11477263585824708,0.059870251158366014
4.4360821106093375,0.05256637267997521,6.779652054655124,-0.018477230569466575,0.0007916101396955676,-0.055209309251732355,0.10788629383362845,0.063177843499914
4.417604880039871,0.053357982819670774,6.724442745403392,-0.018477230569466575,0.0007916101396955676,-0.055209309251732355,0.125781142440975,0.06664168469526029
4.399127649470405,0.05414959295936634,6.66923343615166,-0.018477230569466575,0.0007916101396955676,-0.055209309251732355,0.12395825909883743,0.07026538078124787
4.380650418900938,0.054941203099061905,6.614024126899928,-0.018477230569466575,0.0007916101396955676,-0.055209309251732355,0.1193542655848679,0.07405253779471975
4.362173188331472,0.05573281323875747,6.558814817648195,-0.018477230569466575,0.0007916101396955676,-0.055209309251732355,0.12897121405138534,0.07800676177251889
4.343695957762005,0.05652442337845304,6.503605508396463,-0.018477230569466575,0.0007916101396955676,-0.055209309251732355,0.16090787754967867,0.0821316587514883
4.325218727192539,0.0573160335181486,6.448396199144731,-0.018477230569466575,0.0007916101396955676,-0.055209309251732355,0.16090787754967867,0.08643083476847092
4.306741496623072,0.05810764365784417,6.393186889892998,-0.018477230569466575,0.0007916101396955676,-0.055209309251732355,0.16090787754967867,0.09090789586030978
4.288264266053606,0.058899253797539734,6.337977580641266,-0.018477230569466575,0.0007916101396955676,-0.055209309251732355,0.16090787754967867,0.09556644806384784
4.269787035484139,0.0596908639372353,6.282768271389534,-0.018477230569466575,0.0007916101396955676,-0.055209309251732355,0.16090787754967867,0.1004100974159281
4.251309804914673,0.060482474076930866,6.227558962137802,-0.018477230569466575,0.0007916101396955676,-0.055209309251732355,0.16090787754967867,0.10544244995339352
4.232832574345206,0.06127408421662643,6.172349652886069,-0.018477230569466575,0.0007916101396955676,-0.055209309251732355,0.16056893289888394,0.1106671117130871
4.21435534377574,0.062065694356322,6.117140343634337,-0.018477230569466575,0.0007916101396955676,-0.055209309251732355,0.16056893289888394,0.11608768873185181
4.195878113206273,0.06285730449601756,6.061931034382605,-0.018477230569466575,0.0007916101396955676,-0.055209309251732355,0.16056893289888394,0.12170778704653067
4.177400882636807,0.06364891463571314,6.006721725130872,-0.018477230569466575,0.0007916101396955676,-0.055209309251732355,0.15195614974458452,0.1275310126939666
4.15892365206734,0.06444052477540871,5.95151241587914,-0.018477230569466575,0.0007916101396955676,-0.055209309251732355,0.15394632638710926,0.13356097171100267
4.140446421497874,0.06523213491510428,5.896303106627408,-0.018477230569466575,0.0007916101396955676,-0.055209309251732355,0.15869057116590177,0.1398012701344818
4.121969190928407,0.06602374505479985,5.841093797375676,-0.018477230569466575,0.0007916101396955676,-0.055209309251732355,0.15652092358737132,0.146255514001247
4.103491960358941,0.06681535519449543,5.785884488123943,-0.018477230569466575,0.0007916101396955676,-0.055209309251732355,0.15359791133143202,0.15292730934814125
4.085014729789474,0.067606965334191,5.730675178872211,-0.018477230569466575,0.0007916101396955676,-0.055209309251732355,0.1855852171912736,0.15982026221200749
4.066537499220008,0.06839857547388657,5.675465869620479,-0.018477230569466575,0.0007916101396955676,-0.055209309251732355,0.1855852171912736,0.16693797862968876
4.048060268650541,0.06919018561358214,5.620256560368746,-0.018477230569466575,0.0007916101396955676,-0.055209309251732355,0.17686414928021307,0.17428406463802806
4.029583038081075,0.06998179575327772,5.565047251117014,-0.018477230569466575,0.0007916101396955676,-0.055209309251732355,0.17016929534299646,0.1818621262738683
4.011105807511608,0.07077340589297329,5.509837941865282,-0.018477230569466575,0.0007916101396955676,-0.055209309251732355,0.18316922828556778,0.18967576957405255
3.992628576942142,0.07156501603266886,5.45462863261355,-0.018477230569466575,0.0007916101396955676,-0.055209309251732355,0.1754011178140751,0.1977286005754237
3.9741513463726754,0.07235662617236444,5.399419323361817,-0.018477230569466575,0.0007916101396955676,-0.055209309251732355,0.18678530949110653,0.20602422531482484
3.955674115803209,0.07314823631206001,5.344210014110085,-0.018477230569466575,0.0007916101396955676,-0.055209309251732355,0.18602186434824752,0.21456624982909886
3.9371968852337424,0.07393984645175558,5.289000704858353,-0.018477230569466575,0.0007916101396955676,-0.055209309251732355,0.18495943101243217,0.22335828015508877
3.918719654664276,0.07473145659145115,5.23379139560662,-0.018477230569466575,0.0007916101396955676,-0.055209309251732355,0.18429193977400715,0.23240392232963764
3.9002424240948095,0.07552306673114673,5.178582086354888,-0.018477230569466575,0.0007916101396955676,-0.055209309251732355,0.21002040180190884,0.24170678238958831
3.881765193525343,0.0763146768708423,5.123372777103156,-0.018477230569466575,0.0007916101396955676,-0.055209309251732355,0.21002040180190884,0.25127046637178385
3.8632879629558765,0.07710628701053787,5.068163467851424,-0.018477230569466575,0.0007916101396955676,-0.055209309251732355,0.21641462338603024,0.2610985803130672
3.84481073238641,0.07789789715023344,5.012954158599691,-0.018477230569466575,0.0007916101396955676,-0.055209309251732355,0.21641462338603024,0.2711947302502814
3.8263335018169435,0.07868950728992902,4.957744849347959,-0.018477230569466575,0.0007916101396955676,-0.055209309251732355,0.2273245855023756,0.28156252222026945
3.845878685471105,0.09420047608120263,4.895232520814471,0.019545183654161594,0.015510968791273621,-0.0625123285334884,0.22080573056902744,0.29220556225987426
3.8654238691252667,0.10971144487247625,4.832720192280982,0.019545183654161594,0.015510968791273621,-0.0625123285334884,0.22080573056902744,0.3031274564059388
3.8849690527794283,0.12522241366374987,4.770207863747494,0.019545183654161594,0.015510968791273621,-0.0625123285334884,0.21939400818378332,0.31433181069530614
3.90451423643359,0.14073338245502348,4.707695535214006,0.019545183654161594,0.015510968791273621,-0.0625123285334884,0.23667778414584592,0.32582223116481923
3.9240594200877514,0.1562443512462971,4.645183206680517,0.019545183654161594,0.015510968791273621,-0.0625123285334884,0.2552901765320833,0.337602323851321
3.943604603741913,0.1717553200375707,4.582670878147029,0.019545183654161594,0.015510968791273621,-0.0625123285334884,0.2552901765320833,0.34967569479165456
3.9631497873960746,0.18726628882884433,4.520158549613541,0.019545183654161594,0.015510968791273621,-0.0625123285334884,0.2552901765320833,0.36204595002266277
3.982694971050236,0.20277725762011795,4.4576462210800525,0.019545183654161594,0.015510968791273621,-0.0625123285334884,0.2552901765320833,0.3747166955811887
4.002240154704398,0.21828822641139156,4.395133892546564,0.019545183654161594,0.015510968791273621,-0.0625123285334884,0.25139911009331667,0.3876915375040752
4.02178533835856,0.23379919520266518,4.332621564013076,0.019545183654161594,0.015510968791273621,-0.0625123285334884,0.26326479242211337,0.40097408182816546
4.041330522012722,0.2493101639939388,4.2701092354795875,0.019545183654161594,0.015510968791273621,-0.0625123285334884,0.2580471285852749,0.4145679345903022
4.060875705666884,0.2648211327852124,4.207596906946099,0.019545183654161594,0.015510968791273621,-0.0625123285334884,0.25592926659648035,0.4284767018273287
4.080420889321046,0.280332101576486,4.145084578412611,0.019545183654161594,0.015510968791273621,-0.0625123285334884,0.2561754023528698,0.44270398957608775
4.099966072975208,0.29584307036775964,4.082572249879123,0.019545183654161594,0.015510968791273621,-0.0625123285334884,0.2751444225898749,0.45725340387342245
4.11951125662937,0.31135403915903326,4.020059921345634,0.019545183654161594,0.015510968791273621,-0.0625123285334884,0.2751444225898749,0.47212855075617555
4.139056440283532,0.3268650079503069,3.957547592812146,0.019545183654161594,0.015510968791273621,-0.0625123285334884,0.2727441041094248,0.4893691223597511
4.158601623937694,0.3423759767415805,3.8950352642786576,0.019545183654161594,0.015510968791273621,-0.0625123285334884,0.3042317855262967,0.5070371589389385
4.178146807591856,0.3578869455328541,3.8325229357451693,0.019545183654161594,0.015510968791273621,-0.0625123285334884,0.3042317855262967,0.525137895175063
4.197691991246018,0.3733979143241277,3.770010607211681,0.019545183654161594,0.015510968791273621,-0.0625123285334884,0.3042317855262967,0.5436765657494497
4.2172371749001805,0.38890888311540134,3.7074982786781927,0.019545183654161594,0.015510968791273621,-0.0625123285334884,0.30977210934655425,0.5626584053434232
4.2367823585543425,0.40441985190667495,3.6449859501447044,0.019545183654161594,0.015510968791273621,-0.0625123285334884,0.30977210934655425,0.582088648638309
4.2563275422085045,0.41993082069794857,3.582473621611216,0.019545183654161594,0.015510968791273621,-0.0625123285334884,0.30977210934655425,0.6019725303154321
4.2758727258626665,0.4354417894892222,3.5199612930777278,0.019545183654161594,0.015510968791273621,-0.0625123285334884,0.3225681122213439,0.6223152850561173
4.295417909516829,0.4509527582804958,3.4574489645442394,0.019545183654161594,0.015510968791273621,-0.0625123285334884,0.3406153068620255,0.64312214754169
4.314963093170991,0.4664637270717694,3.394936636010751,0.019545183654161594,0.015510968791273621,-0.0625123285334884,0.3406153068620255,0.6643983524534749
4.334508276825153,0.48197469586304303,3.332424307477263,0.019545183654161594,0.015510968791273621,-0.0625123285334884,0.3406153068620255,0.6861491344727972
4.354053460479315,0.49748566465431665,3.2699119789437745,0.019545183654161594,0.015510968791273621,-0.0625123285334884,0.3406153068620255,0.7083797282809821
4.373598644133477,0.5129966334455903,3.207399650410286,0.019545183654161594,0.015510968791273621,-0.0625123285334884,0.3357067213076471,0.7310953685593544
4.393143827787639,0.528507602236864,3.144887321876798,0.019545183654161594,0.015510968791273621,-0.0625123285334884,0.33167222159549165,0.7543012899892393
4.412689011441801,0.5440185710281377,3.0823749933433096,0.019545183654161594,0.015510968791273621,-0.0625123285334884,0.35054702789087844,0.7780027272519618
4.432234195095963,0.5595295398194113,3.0198626648098212,0.019545183654161594,0.015510968791273621,-0.0625123285334884,0.35054702789087844,0.802204915028847
4.451779378750125,0.575040508610685,2.957350336276333,0.019545183654161594,0.015510968791273621,-0.0625123285334884,0.36713287194366456,0.8269130880012199
4.471324562404287,0.5905514774019587,2.8948380077428446,0.019545183654161594,0.015510968791273621,-0.0625123285334884,0.35863481090512045,0.8521324808504055
4.490869746058449,0.6060624461932324,2.8323256792093563,0.019545183654161594,0.015510968791273621,-0.0625123285334884,0.3716675697277127,0.877868328257729
4.510414929712611,0.621573414984506,2.769813350675868,0.019545183654161594,0.015510968791273621,-0.0625123285334884,0.3988721978412485,0.9041258649045153
4.529960113366773,0.6370843837757797,2.7073010221423797,0.019545183654161594,0.015510968791273621,-0.0625123285334884,0.3988721978412485,0.9309103254720895
4.549505297020935,0.6525953525670534,2.6447886936088914,0.019545183654161594,0.015510968791273621,-0.0625123285334884,0.3988721978412485,0.9582269446417767
4.569050480675097,0.668106321358327,2.582276365075403,0.019545183654161594,0.015510968791273621,-0.0625123285334884,0.39281202460854375,0.9860809570949017
4.588595664329259,0.6836172901496007,2.5197640365419147,0.019545183654161594,0.015510968791273621,-0.0625123285334884,0.4021387894101533,1.0144775975127902
4.608140847983421,0.6991282589408744,2.4572517080084264,0.019545183654161594,0.015510968791273621,-0.0625123285334884,0.41407928169524183,1.0434221005767663
4.627686031637583,0.714639227732148,2.394739379474938,0.019545183654161594,0.015510968791273621,-0.0625123285334884,0.41636278649627556,1.072919700968156
4.647231215291745,0.7301501965234217,2.3322270509414498,0.019545183654161594,0.015510968791273621,-0.0625123285334884,0.42736253613605996,1.1029756333682836
4.666776398945907,0.7456611653146954,2.2697147224079615,0.019545183654161594,0.015510968791273621,-0.0625123285334884,0.42960415881323527,1.1335951324584748
4.686321582600069,0.7611721341059691,2.207202393874473,0.019545183654161594,0.015510968791273621,-0.0625123285334884,0.4438438542838227,1.164783432920054
4.705866766254231,0.7766831028972427,2.144690065340985,0.019545183654161594,0.015510968791273621,-0.0625123285334884,0.443839200247038,1.1965457694343467
4.725411949908393,0.7921940716885164,2.0821777368074965,0.019545183654161594,0.015510968791273621,-0.0625123285334884,0.4457548633658096,1.2288873766826776
4.744957133562555,0.8077050404797901,2.019665408274008,0.019545183654161594,0.015510968791273621,-0.0625123285334884,0.476088747605755,1.2618134893463722
4.764502317216717,0.8232160092710638,1.9571530797405199,0.019545183654161594,0.015510968791273621,-0.0625123285334884,0.476088747605755,1.2953293421067553
4.784047500870879,0.8387269780623374,1.8946407512070316,0.019545183654161594,0.015510968791273621,-0.0625123285334884,0.476088747605755,1.3294401696451519
4.8117142462930795,0.8349999372856446,1.9645482741995723,0.02766674542220004,-0.0037270407766928303,0.06990752299254081,0.4701499401518795,1.364151206642887
4.83938099171528,0.8312728965089518,2.034455797192113,0.02766674542220004,-0.0037270407766928303,0.06990752299254081,0.4817543693403445,1.3994676877812857
4.86704773713748,0.8275458557322589,2.104363320184654,0.02766674542220004,-0.0037270407766928303,0.06990752299254081,0.4799225530459343,1.4353948477416731
4.894714482559681,0.8238188149555661,2.174270843177195,0.02766674542220004,-0.0037270407766928303,0.06990752299254081,0.4917062493383093,1.4719379212053747
4.922381227981881,0.8200917741788732,2.244178366169736,0.02766674542220004,-0.0037270407766928303,0.06990752299254081,0.5235366550668165,1.5091021428537146
4.950047973404081,0.8163647334021804,2.314085889162277,0.02766674542220004,-0.0037270407766928303,0.06990752299254081,0.5235366550668165,1.5468927473680187
4.977714718826282,0.8126376926254876,2.383993412154818,0.02766674542220004,-0.0037270407766928303,0.06990752299254081,0.5235366550668165,1.5853149694296118
5.005381464248482,0.8089106518487947,2.453900935147359,0.02766674542220004,-0.0037270407766928303,0.06990752299254081,0.5235366550668165,1.6243740437198184
5.033048209670683,0.8051836110721019,2.5238084581399,0.02766674542220004,-0.0037270407766928303,0.06990752299254081,0.5235366550668165,1.6640752049199643
5.060714955092883,0.8014565702954091,2.593715981132441,0.02766674542220004,-0.0037270407766928303,0.06990752299254081,0.5235366550668165,1.7044236877113743
5.088381700515083,0.7977295295187162,2.663623504124982,0.02766674542220004,-0.0037270407766928303,0.06990752299254081,0.5235366550668165,1.7454247267753733
5.116048445937284,0.7940024887420234,2.733531027117523,0.02766674542220004,-0.0037270407766928303,0.06990752299254081,0.5235366550668165,1.7870835567932863
5.143715191359484,0.7902754479653306,2.803438550110064,0.02766674542220004,-0.0037270407766928303,0.06990752299254081,0.5235366550668165,1.8294054124464387
5.1713819367816845,0.7865484071886377,2.873346073102605,0.02766674542220004,-0.0037270407766928303,0.06990752299254081,0.5235366550668165,1.8723955284161555
5.199048682203885,0.7828213664119449,2.943253596095146,0.02766674542220004,-0.0037270407766928303,0.06990752299254081,0.5235366550668165,1.9160591393837612
5.226715427626085,0.779094325635252,3.013161119087687,0.02766674542220004,-0.0037270407766928303,0.06990752299254081,0.5218333211445262,1.9160591393837612
5.254382173048286,0.7753672848585592,3.083068642080228,0.02766674542220004,-0.0037270407766928303,0.06990752299254081,0.518947842250275,1.9160591393837612
5.282048918470486,0.7716402440818664,3.152976165072769,0.02766674542220004,-0.0037270407766928303,0.06990752299254081,0.5140910974199366,1.9160591393837612
5.309715663892686,0.7679132033051735,3.22288368806531,0.02766674542220004,-0.0037270407766928303,0.06990752299254081,0.5140238998423712,1.9160591393837612
5.337382409314887,0.7641861625284807,3.292791211057851,0.02766674542220004,-0.0037270407766928303,0.06990752299254081,0.5118233281152139,1.9160591393837612
5.365049154737087,0.7604591217517879,3.362698734050392,0.02766674542220004,-0.0037270407766928303,0.06990752299254081,0.5093315091434851,1.9160591393837612
5.3927159001592875,0.756732080975095,3.432606257042933,0.02766674542220004,-0.0037270407766928303,0.06990752299254081,0.504676976151519,1.9160591393837612
5.420382645581488,0.7530050401984022,3.502513780035474,0.02766674542220004,-0.0037270407766928303,0.06990752299254081,0.5049043379790737,1.9160591393837612
5.448049391003688,0.7492779994217094,3.572421303028015,0.02766674542220004,-0.0037270407766928303,0.06990752299254081,0.4993484820445845,1.9160591393837612
5.475716136425889,0.7455509586450165,3.642328826020556,0.02766674542220004,-0.0037270407766928303,0.06990752299254081,0.4956694047028522,1.9160591393837612
5.503382881848089,0.7418239178683237,3.712236349013097,0.02766674542220004,-0.0037270407766928303,0.06990752299254081,0.4955773669843987,1.9241963885970625
5.531049627270289,0.7380968770916309,3.782143872005638,0.02766674542220004,-0.0037270407766928303,0.06990752299254081,0.49748178039544205,1.936681530568332
5.55871637269249,0.734369836314938,3.852051394998179,0.02766674542220004,-0.0037270407766928303,0.06990752299254081,0.49760921820028853,1.9194148730862408
5.58638311811469,0.7306427955382452,3.92195891799072,0.02766674542220004,-0.0037270407766928303,0.06990752299254081,0.495831093548789,1.903763169442756
5.6140498635368905,0.7269157547615523,3.991866440983261,0.02766674542220004,-0.0037270407766928303,0.06990752299254081,0.4966538546669376,1.896522807289406
5.641716608959091,0.7231887139848595,4.061773963975802,0.02766674542220004,-0.0037270407766928303,0.06990752299254081,0.4965766726625802,1.8941285574318443
5.669383354381291,0.7194616732081667,4.1316814869683425,0.02766674542220004,-0.0037270407766928303,0.06990752299254081,0.4948861165152626,1.8849973649832013
5.697050099803492,0.7157346324314738,4.201589009960883,0.02766674542220004,-0.0037270407766928303,0.06990752299254081,0.5043378395841861,1.879255490947742
5.724716845225692,0.712007591654781,4.271496532953424,0.02766674542220004,-0.0037270407766928303,0.06990752299254081,0.4991633860860012,1.8747921773570368
5.752383590647892,0.7082805508780882,4.341404055945964,0.02766674542220004,-0.0037270407766928303,0.06990752299254081,0.49680438734688703,1.8620142853374109
5.780050336070093,0.7045535101013953,4.411311578938505,0.02766674542220004,-0.0037270407766928303,0.06990752299254081,0.49573673504374266,1.8711242246117057
5.807717081492293,0.7008264693247025,4.481219101931045,0.02766674542220004,-0.0037270407766928303,0.06990752299254081,0.49924555562078415,1.878494420239942
5.8353838269144935,0.6970994285480097,4.551126624923586,0.02766674542220004,-0.0037270407766928303,0.06990752299254081,0.4897746469648884,1.8667425323986517
5.863050572336694,0.6933723877713168,4.621034147916126,0.02766674542220004,-0.0037270407766928303,0.06990752299254081,0.4905652462825497,1.866898240106813
5.890717317758894,0.689645346994624,4.690941670908667,0.02766674542220004,-0.0037270407766928303,0.06990752299254081,0.49174531311548053,1.869278565066927
5.918384063181095,0.6859183062179312,4.760849193901207,0.02766674542220004,-0.0037270407766928303,0.06990752299254081,0.49168759862339106,1.88031781357321
5.946050808603295,0.6821912654412383,4.830756716893748,0.02766674542220004,-0.0037270407766928303,0.06990752299254081,0.4853579659256057,1.8768685260164637
5.973717554025495,0.6784642246645455,4.9006642398862885,0.02766674542220004,-0.0037270407766928303,0.06990752299254081,0.48166637268466794,1.8815767941285613
6.001384299447696,0.6747371838878526,4.970571762878829,0.02766674542220004,-0.0037270407766928303,0.06990752299254081,0.4895573280517455,1.8825040148326535
6.029051044869896,0.6710101431111598,5.04047928587137,0.02766674542220004,-0.0037270407766928303,0.06990752299254081,0.4835162846101455,1.8836689227643986
6.056717790292097,0.667283102334467,5.11038680886391,0.02766674542220004,-0.0037270407766928303,0.06990752299254081,0.4970675888171489,1.8853285099505563
6.084384535714297,0.6635560615577741,5.180294331856451,0.02766674542220004,-0.0037270407766928303,0.06990752299254081,0.49743174804851364,1.878107917299946
6.112051281136497,0.6598290207810813,5.250201854848991,0.02766674542220004,-0.0037270407766928303,0.06990752299254081,0.49460748694473394,1.8813080728629576
6.169961394604593,0.6682383783013985,5.2079202260520265,0.05791011346809592,0.008409357520317254,-0.04228162879696454,0.49648425416676034,1.872653554342894
6.227871508072689,0.6766477358217158,5.165638597255062,0.05791011346809592,0.008409357520317254,-0.04228162879696454,0.4930601012604403,1.8704996149693414
6.285781621540785,0.685057093342033,5.123356968458097,0.05791011346809592,0.008409357520317254,-0.04228162879696454,0.5016056520966321,1.8644443575273029
6.343691735008881,0.6934664508623503,5.081075339661132,0.05791011346809592,0.008409357520317254,-0.04228162879696454,0.49809083239510304,1.8488481309566083
6.401601848476977,0.7018758083826675,5.038793710864168,0.05791011346809592,0.008409357520317254,-0.04228162879696454,0.4995847027202925,1.8431039142760826
6.459511961945073,0.7102851659029847,4.996512082067203,0.05791011346809592,0.008409357520317254,-0.04228162879696454,0.49673762607272276,1.84807494001278
6.517422075413169,0.718694523423302,4.954230453270238,0.05791011346809592,0.008409357520317254,-0.04228162879696454,0.49993770552228556,1.8588125327658032
6.575332188881265,0.7271038809436192,4.911948824473273,0.05791011346809592,0.008409357520317254,-0.04228162879696454,0.49889647772447787,1.8555316428076543
6.633242302349361,0.7355132384639365,4.869667195676309,0.05791011346809592,0.008409357520317254,-0.04228162879696454,0.5004827624763118,1.8416716599404945
6.691152415817457,0.7439225959842537,4.827385566879344,0.05791011346809592,0.008409357520317254,-0.04228162879696454,0.5074553446411365,1.842614092412122
6.749062529285553,0.7523319535045709,4.785103938082379,0.05791011346809592,0.008409357520317254,-0.04228162879696454,0.5047478730651115,1.8315757028656703
6.8069726427536486,0.7607413110248882,4.7428223092854145,0.05791011346809592,0.008409357520317254,-0.04228162879696454,0.5056780741561523,1.8465231391732493
6.8648827562217445,0.7691506685452054,4.70054068048845,0.05791011346809592,0.008409357520317254,-0.04228162879696454,0.49989302387791473,1.8615070377924863
6.92279286968984,0.7775600260655227,4.658259051691485,0.05791011346809592,0.008409357520317254,-0.04228162879696454,0.5016321787682003,1.855061987479213
6.980702983157936,0.7859693835858399,4.61597742289452,0.05791011346809592,0.008409357520317254,-0.04228162879696454,0.4914196801622636,1.8634572501288142
7.038613096626032,0.7943787411061571,4.5736957940975556,0.05791011346809592,0.008409357520317254,-0.04228162879696454,0.48546362109148894,1.8605405047397003
7.096523210094128,0.8027880986264744,4.531414165300591,0.05791011346809592,0.008409357520317254,-0.04228162879696454,0.47771554557253476,1.8564261782500162
7.154433323562224,0.8111974561467916,4.489132536503626,0.05791011346809592,0.008409357520317254,-0.04228162879696454,0.4723888887584276,1.8512624067849133
7.21234343703032,0.8196068136671089,4.446850907706661,0.05791011346809592,0.008409357520317254,-0.04228162879696454,0.46604529949950024,1.8539405020134978
7.270253550498416,0.8280161711874261,4.404569278909697,0.05791011346809592,0.008409357520317254,-0.04228162879696454,0.46527144617429966,1.8551471149617365
7.328163663966512,0.8364255287077433,4.362287650112732,0.05791011346809592,0.008409357520317254,-0.04228162879696454,0.4700512134307003,1.8566060578117856
7.386073777434608,0.8448348862280606,4.320006021315767,0.05791011346809592,0.008409357520317254,-0.04228162879696454,0.47260877758850567,1.8410377007155831
7.443983890902704,0.8532442437483778,4.277724392518802,0.05791011346809592,0.008409357520317254,-0.04228162879696454,0.46968479617985176,1.8462134446155178
7.5018940043708,0.8616536012686951,4.235442763721838,0.05791011346809592,0.008409357520317254,-0.04228162879696454,0.47057802852353176,1.8617408801073627
7.559804117838896,0.8700629587890123,4.193161134924873,0.05791011346809592,0.008409357520317254,-0.04228162879696454,0.4692764997656894,1.8633983627708552
7.617714231306992,0.8784723163093295,4.150879506127908,0.05791011346809592,0.008409357520317254,-0.04228162879696454,0.4684765688655062,1.863706207403934
7.675624344775088,0.8868816738296468,4.1085978773309435,0.05791011346809592,0.008409357520317254,-0.04228162879696454,0.46619314454508265,1.8597503432922515
7.7335344582431835,0.895291031349964,4.066316248533979,0.05791011346809592,0.008409357520317254,-0.04228162879696454,0.46206092170300805,1.8589638811013682
7.7914445717112795,0.9037003888702813,4.024034619737014,0.05791011346809592,0.008409357520317254,-0.04228162879696454,0.4543324693419217,1.8552313998963232
7.849354685179375,0.9121097463905985,3.9817529909400493,0.05791011346809592,0.008409357520317254,-0.04228162879696454,0.4553920101551543,1.8610888372275174
7.907264798647471,0.9205191039109157,3.9394713621430846,0.05791011346809592,0.008409357520317254,-0.04228162879696454,0.452323807548477,1.8648045900668075
7.965174912115567,0.928928461431233,3.89718973334612,0.05791011346809592,0.008409357520317254,-0.04228162879696454,0.45029379423745564,1.8586085899988138
8.023085025583663,0.9373378189515502,3.854908104549155,0.05791011346809592,0.008409357520317254,-0.04228162879696454,0.44436901640780085,1.8425214876374831
8.080995139051758,0.9457471764718675,3.8126264757521904,0.05791011346809592,0.008409357520317254,-0.04228162879696454,0.4387084830446923,1.8453555702172184
8.138905252519853,0.9541565339921847,3.7703448469552256,0.05791011346809592,0.008409357520317254,-0.04228162879696454,0.4318595002476998,1.8400088947252964
8.196815365987948,0.9625658915125019,3.728063218158261,0.05791011346809592,0.008409357520317254,-0.04228162879696454,0.4406050780978154,1.8361900520590413
8.254725479456043,0.9709752490328192,3.685781589361296,0.05791011346809592,0.008409357520317254,-0.04228162879696454,0.4418045784349588,1.8390277085611706
8.312635592924138,0.9793846065531364,3.6434999605643315,0.05791011346809592,0.008409357520317254,-0.04228162879696454,0.444027372323051,1.845046326070415
8.370545706392233,0.9877939640734537,3.6012183317673667,0.05791011346809592,0.008409357520317254,-0.04228162879696454,0.44648140070568126,1.8558731300725517
8.428455819860329,0.9962033215937709,3.558936702970402,0.05791011346809592,0.008409357520317254,-0.04228162879696454,0.4487911315492631,1.854366628000125
8.486365933328424,1.0046126791140881,3.5166550741734373,0.05791011346809592,0.008409357520317254,-0.04228162879696454,0.4486072401863209,1.856038469520295
8.544276046796519,1.0130220366344054,3.4743734453764725,0.05791011346809592,0.008409357520317254,-0.04228162879696454,0.4491514875798556,1.8533793481440846
8.602186160264614,1.0214313941547226,3.432091816579508,0.05791011346809592,0.008409357520317254,-0.04228162879696454,0.44839216537625926,1.8547778072463532
8.660096273732709,1.0298407516750399,3.389810187782543,0.05791011346809592,0.008409357520317254,-0.04228162879696454,0.45357840504087993,1.8493626810569925
8.718006387200804,1.038250109195357,3.3475285589855783,0.05791011346809592,0.008409357520317254,-0.04228162879696454,0.4505348097828676,1.8563611726583111
8.775916500668899,1.0466594667156743,3.3052469301886136,0.05791011346809592,0.008409357520317254,-0.04228162879696454,0.4493398984920949,1.8398276763666288
8.833826614136994,1.0550688242359916,3.262965301391649,0.05791011346809592,0.008409357520317254,-0.04228162879696454,0.4465386739654623,1.8475842845661308
8.891736727605089,1.0634781817563088,3.220683672594684,0.05791011346809592,0.008409357520317254,-0.04228162879696454,0.4390469672416432,1.8424025867850355
8.949646841073184,1.071887539276626,3.1784020437977194,0.05791011346809592,0.008409357520317254,-0.04228162879696454,0.43841177187347236,1.8437650444810445
9.007556954541279,1.0802968967969433,3.1361204150007547,0.05791011346809592,0.008409357520317254,-0.04228162879696454,0.4301802822970509,1.8414760013532439
9.065467068009374,1.0887062543172605,3.09383878620379,0.05791011346809592,0.008409357520317254,-0.04228162879696454,0.4330955698477248,1.8424832702718432
9.12337718147747,1.0971156118375778,3.051557157406825,0.05791011346809592,0.008409357520317254,-0.04228162879696454,0.433889615814036,1.8406589609154445
9.181287294945564,1.105524969357895,3.0092755286098605,0.05791011346809592,0.008409357520317254,-0.04228162879696454,0.42877914650050974,1.8343977138006433
9.23919740841366,1.1139343268782123,2.9669938998128957,0.05791011346809592,0.008409357520317254,-0.04228162879696454,0.42550119494273714,1.8180229730209079
9.297107521881754,1.1223436843985295,2.924712271015931,0.05791011346809592,0.008409357520317254,-0.04228162879696454,0.4246533122999123,1.8080843793491708
9.35501763534985,1.1307530419188467,2.8824306422189663,0.05791011346809592,0.008409357520317254,-0.04228162879696454,0.42268887681421213,1.8281667351800996
9.412927748817944,1.139162399439164,2.8401490134220015,0.05791011346809592,0.008409357520317254,-0.04228162879696454,0.4141174944964354,1.8447836773007633
9.47083786228604,1.1475717569594812,2.797867384625037,0.05791011346809592,0.008409357520317254,-0.04228162879696454,0.4062879228899473,1.8201078298236006
9.528747975754134,1.1559811144797985,2.755585755828072,0.05791011346809592,0.008409357520317254,-0.04228162879696454,0.39811799383495694,1.8133716349575524
9.58665808922223,1.1643904720001157,2.7133041270311073,0.05791011346809592,0.008409357520317254,-0.04228162879696454,0.3910719206453249,1.7937822214123371
9.644568202690325,1.172799829520433,2.6710224982341426,0.05791011346809592,0.008409357520317254,-0.04228162879696454,0.401552147129172,1.7908045781731456
9.70247831615842,1.1812091870407502,2.628740869437178,0.05791011346809592,0.008409357520317254,-0.04228162879696454,0.401552147129172,1.7809115791975925
9.760388429626515,1.1896185445610674,2.586459240640213,0.05791011346809592,0.008409357520317254,-0.04228162879696454,0.3926437934799107,1.7790391176800031
9.81829854309461,1.1980279020813847,2.5441776118432484,0.05791011346809592,0.008409357520317254,-0.04228162879696454,0.405371273182752,1.759313803816477
9.876208656562705,1.206437259601702,2.5018959830462837,0.05791011346809592,0.008409357520317254,-0.04228162879696454,0.4099185426206926,1.7497608313419903
9.9341187700308,1.2148466171220191,2.459614354249319,0.05791011346809592,0.008409357520317254,-0.04228162879696454,0.41414326400215123,1.7517246766711123
9.91475374900474,1.2063223376650105,2.415706037361019,-0.01936502102605941,-0.008524279457008519,-0.043908316888300186,0.42309412320934703,1.750836489173606
9.89538872797868,1.197798058208002,2.3717977204727188,-0.01936502102605941,-0.008524279457008519,-0.043908316888300186,0.42309412320934703,1.7333321011045013
9.87602370695262,1.1892737787509933,2.3278894035844186,-0.01936502102605941,-0.008524279457008519,-0.043908316888300186,0.4391777172188086,1.7381449994037885
9.856658685926561,1.1807494992939847,2.2839810866961185,-0.01936502102605941,-0.008524279457008519,-0.043908316888300186,0.442111282236929,1.7302523097028824
9.899576448734392,1.1735591895892226,2.2613839140760383,0.042917762807830606,-0.0071903097047621095,-0.022597172620080146,0.456119117663311,1.7210925893950282
9.942494211542222,1.1663688798844605,2.238786741455958,0.042917762807830606,-0.0071903097047621095,-0.022597172620080146,0.4558006696272183,1.7231851090377233
9.985411974350052,1.1591785701796984,2.216189568835878,0.042917762807830606,-0.0071903097047621095,-0.022597172620080146,0.4558006696272183,1.7281312476064041
10.028329737157883,1.1519882604749363,2.1935923962157977,0.042917762807830606,-0.0071903097047621095,-0.022597172620080146,0.4675682856345438,1.7472182861367924
10.071247499965713,1.1447979507701742,2.1709952235957175,0.042917762807830606,-0.0071903097047621095,-0.022597172620080146,0.4778548762271345,1.762055821971503
10.114165262773543,1.1376076410654121,2.1483980509756373,0.042917762807830606,-0.0071903097047621095,-0.022597172620080146,0.48669205882334504,1.7514860117770223
10.157083025581374,1.13041733136065,2.125800878355557,0.042917762807830606,-0.0071903097047621095,-0.022597172620080146,0.48669205882334504,1.7531840299847108
10.200000788389204,1.123227021655888,2.103203705735477,0.042917762807830606,-0.0071903097047621095,-0.022597172620080146,0.48669205882334504,1.7434343956785856
10.242918551197034,1.1160367119511259,2.0806065331153967,0.042917762807830606,-0.0071903097047621095,-0.022597172620080146,0.48085172947431076,1.7471005357191507
10.285836314004865,1.1088464022463638,2.0580093604953165,0.042917762807830606,-0.0071903097047621095,-0.022597172620080146,0.5033225363258641,1.7464749411346119
10.328754076812695,1.1016560925416017,2.0354121878752363,0.042917762807830606,-0.0071903097047621095,-0.022597172620080146,0.5033225363258641,1.7528818816130618
10.371671839620525,1.0944657828368396,2.012815015255156,0.042917762807830606,-0.0071903097047621095,-0.022597172620080146,0.5033225363258641,1.724662795950092
10.414589602428356,1.0872754731320775,1.9902178426350758,0.042917762807830606,-0.0071903097047621095,-0.022597172620080146,0.5033225363258641,1.7347880139882852
10.457507365236186,1.0800851634273154,1.9676206700149956,0.042917762807830606,-0.0071903097047621095,-0.022597172620080146,0.5033225363258641,1.7290236263323964
10.500425128044016,1.0728948537225533,1.9450234973949154,0.042917762807830606,-0.0071903097047621095,-0.022597172620080146,0.5033225363258641,1.7211208023382003
10.543342890851847,1.0657045440177912,1.9224263247748352,0.042917762807830606,-0.0071903097047621095,-0.022597172620080146,0.5033225363258641,1.7205905856679287
10.586260653659677,1.0585142343130292,1.899829152154755,0.042917762807830606,-0.0071903097047621095,-0.022597172620080146,0.4959431895644569,1.703493127464593
10.629178416467507,1.051323924608267,1.8772319795346748,0.042917762807830606,-0.0071903097047621095,-0.022597172620080146,0.4959431895644569,1.7073247068560906
10.672096179275337,1.044133614903505,1.8546348069145946,0.042917762807830606,-0.0071903097047621095,-0.022597172620080146,0.5077142444750674,1.7132945601736087
10.715013942083168,1.036943305198743,1.8320376342945144,0.042917762807830606,-0.0071903097047621095,-0.022597172620080146,0.5022607023594285,1.728091650262258
10.757931704890998,1.0297529954939808,1.8094404616744342,0.042917762807830606,-0.0071903097047621095,-0.022597172620080146,0.49813164070093513,1.7429744062512154
10.800849467698828,1.0225626857892187,1.786843289054354,0.042917762807830606,-0.0071903097047621095,-0.022597172620080146,0.4933846335490843,1.757943075401428
10.843767230506659,1.0153723760844566,1.7642461164342738,0.042917762807830606,-0.0071903097047621095,-0.022597172620080146,0.5152016303301822,1.7729979049738431
10.88668499331449,1.0081820663796945,1.7416489438141936,0.042917762807830606,-0.0071903097047621095,-0.022597172620080146,0.5152016303301822,1.7881391422294082
10.92960275612232,1.0009917566749325,1.7190517711941133,0.042917762807830606,-0.0071903097047621095,-0.022597172620080146,0.5209808619837645,1.8033670344290704
10.97252051893015,0.9938014469701704,1.6964545985740331,0.042917762807830606,-0.0071903097047621095,-0.022597172620080146,0.5330342062713048,1.8186818288337765
11.01543828173798,0.9866111372654083,1.673857425953953,0.042917762807830606,-0.0071903097047621095,-0.022597172620080146,0.5280614936185772,1.8340837727044743
11.05835604454581,0.9794208275606462,1.6512602533338727,0.042917762807830606,-0.0071903097047621095,-0.022597172620080146,0.5202631823761484,1.849573113302111
11.10127380735364,0.9722305178558841,1.6286630807137925,0.042917762807830606,-0.0071903097047621095,-0.022597172620080146,0.5213278533201452,1.865150097887634
11.144191570161471,0.965040208151122,1.6060659080937123,0.042917762807830606,-0.0071903097047621095,-0.022597172620080146,0.5185284117081571,1.880814973721989
11.187109332969301,0.9578498984463599,1.583468735473632,0.042917762807830606,-0.0071903097047621095,-0.022597172620080146,0.5185284117081571,1.8965679880661246
11.230027095777132,0.9506595887415978,1.5608715628535519,0.042917762807830606,-0.0071903097047621095,-0.022597172620080146,0.5185284117081571,1.912409388180989
11.272944858584962,0.9434692790368358,1.5382743902334717,0.042917762807830606,-0.0071903097047621095,-0.022597172620080146,0.5232859882716813,1.9283394213275284
11.315862621392792,0.9362789693320737,1.5156772176133915,0.042917762807830606,-0.0071903097047621095,-0.022597172620080146,0.5492308670118932,1.9443583347666886
11.358780384200623,0.9290886596273116,1.4930800449933113,0.042917762807830606,-0.0071903097047621095,-0.022597172620080146,0.5492308670118932,1.960466375759418
11.401698147008453,0.9218983499225495,1.470482872373231,0.042917762807830606,-0.0071903097047621095,-0.022597172620080146,0.5492308670118932,1.9766637915666654
11.444615909816283,0.9147080402177874,1.4478856997531508,0.042917762807830606,-0.0071903097047621095,-0.022597172620080146,0.5492308670118932,1.9929508294493765
11.487533672624114,0.9075177305130253,1.4252885271330706,0.042917762807830606,-0.0071903097047621095,-0.022597172620080146,0.5405904056644105,2.009327736668498
11.530451435431944,0.9003274208082632,1.4026913545129904,0.042917762807830606,-0.0071903097047621095,-0.022597172620080146,0.54538370970396,2.0257947604849775
11.573369198239774,0.8931371111035011,1.3800941818929102,0.042917762807830606,-0.0071903097047621095,-0.022597172620080146,0.5531753019594,2.0423521481597633
11.616286961047605,0.885946801398739,1.35749700927283,0.042917762807830606,-0.0071903097047621095,-0.022597172620080146,0.5642604468661397,2.059000146953802
11.659204723855435,0.878756491693977,1.3348998366527498,0.042917762807830606,-0.0071903097047621095,-0.022597172620080146,0.5642604468661397,2.07573900412804
11.702122486663265,0.8715661819892149,1.3123026640326696,0.042917762807830606,-0.0071903097047621095,-0.022597172620080146,0.55937102360111,2.092568966943425
11.745040249471096,0.8643758722844528,1.2897054914125894,0.042917762807830606,-0.0071903097047621095,-0.022597172620080146,0.55937102360111,2.109490282660906
11.787958012278926,0.8571855625796907,1.2671083187925092,0.042917762807830606,-0.0071903097047621095,-0.022597172620080146,0.5525179077274509,2.126503198541428
11.830875775086756,0.8499952528749286,1.244511146172429,0.042917762807830606,-0.0071903097047621095,-0.022597172620080146,0.5604895620993523,2.143607961845938
11.873793537894587,0.8428049431701665,1.2219139735523488,0.042917762807830606,-0.0071903097047621095,-0.022597172620080146,0.5604895620993523,2.160804819835384
11.916711300702417,0.8356146334654044,1.1993168009322686,0.042917762807830606,-0.0071903097047621095,-0.022597172620080146,0.5590335658542368,2.178094019770715
11.959629063510247,0.8284243237606423,1.1767196283121883,0.042917762807830606,-0.0071903097047621095,-0.022597172620080146,0.5590335658542368,2.1954758089128767
12.002546826318078,0.8212340140558803,1.1541224556921081,0.042917762807830606,-0.0071903097047621095,-0.022597172620080146,0.5683977627120756,2.2129504345228153
12.045464589125908,0.8140437043511182,1.131525283072028,0.042917762807830606,-0.0071903097047621095,-0.022597172620080146,0.590646245042145,2.2305181438614783
12.088382351933738,0.8068533946463561,1.1089281104519477,0.042917762807830606,-0.0071903097047621095,-0.022597172620080146,0.590646245042145,2.2481791841898153
12.131300114741569,0.799663084941594,1.0863309378318675,0.042917762807830606,-0.0071903097047621095,-0.022597172620080146,0.590646245042145,2.265933802768772
12.174217877549399,0.7924727752368319,1.0637337652117873,0.042917762807830606,-0.0071903097047621095,-0.022597172620080146,0.5960578218525341,2.283782246859294
12.21713564035723,0.7852824655320698,1.041136592591707,0.042917762807830606,-0.0071903097047621095,-0.022597172620080146,0.5960578218525341,2.3017247637223304
12.26005340316506,0.7780921558273077,1.018539419971627,0.042917762807830606,-0.0071903097047621095,-0.022597172620080146,0.5871520554126719,2.319761600618829
12.327008614927836,0.7800494015327725,1.0000528367390418,0.06695521176277659,0.0019572457054647403,-0.01848658323258511,0.5840919297320865,2.337893004809736
12.32699099901483,0.7823962653909302,1.0226658267609752,-1.7615913004855017e-05,0.002346863858157773,0.022612990021933458,0.5981518189751011,2.356119223555998
12.326973383101825,0.784743129249088,1.0452788167829086,-1.7615913004855017e-05,0.002346863858157773,0.022612990021933458,0.6062858861980397,2.3744405041185623
12.326955767188819,0.7870899931072457,1.067891806804842,-1.7615913004855017e-05,0.002346863858157773,0.022612990021933458,0.6062858861980397,2.3928570937583786
12.326938151275813,0.7894368569654034,1.0905047968267754,-1.7615913004855017e-05,0.002346863858157773,0.022612990021933458,0.6062858861980397,2.4113692397363926
12.326920535362808,0.7917837208235612,1.1131177868487088,-1.7615913004855017e-05,0.002346863858157773,0.022612990021933458,0.6044591523446082,2.4299771893135493
12.326902919449802,0.7941305846817189,1.1357307768706422,-1.7615913004855017e-05,0.002346863858157773,0.022612990021933458,0.5982158560668226,2.4486811897507983
12.326885303536796,0.7964774485398767,1.1583437668925756,-1.7615913004855017e-05,0.002346863858157773,0.022612990021933458,0.59421593293955,2.467481488309088
12.32686768762379,0.7988243123980344,1.180956756914509,-1.7615913004855017e-05,0.002346863858157773,0.022612990021933458,0.6063067409088415,2.486378332249364
12.326850071710785,0.8011711762561922,1.2035697469364424,-1.7615913004855017e-05,0.002346863858157773,0.022612990021933458,0.5967509411017239,2.505371968832572
12.32683245579778,0.8035180401143499,1.2261827369583758,-1.7615913004855017e-05,0.002346863858157773,0.022612990021933458,0.5907001790464556,2.524462645319661
12.326814839884774,0.8058649039725077,1.2487957269803092,-1.7615913004855017e-05,0.002346863858157773,0.022612990021933458,0.5907001790464556,2.54365060897158
12.326797223971768,0.8082117678306654,1.2714087170022426,-1.7615913004855017e-05,0.002346863858157773,0.022612990021933458,0.5959785408892906,2.5629361070492735
12.326779608058763,0.8105586316888231,1.294021707024176,-1.7615913004855017e-05,0.002346863858157773,0.022612990021933458,0.5959785408892906,2.5823193868136887
12.326761992145757,0.8129054955469809,1.3166346970461094,-1.7615913004855017e-05,0.002346863858157773,0.022612990021933458,0.5959785408892906,2.6018006955257738
12.326744376232751,0.8152523594051386,1.3392476870680428,-1.7615913004855017e-05,0.002346863858157773,0.022612990021933458,0.5865520469793338,2.6178112883849622
12.326726760319746,0.8175992232632964,1.3618606770899762,-1.7615913004855017e-05,0.002346863858157773,0.022612990021933458,0.5865520469793338,2.6178112883849622
12.32670914440674,0.8199460871214541,1.3844736671119096,-1.7615913004855017e-05,0.002346863858157773,0.022612990021933458,0.5768529281285385,2.6178112883849622
12.326691528493734,0.8222929509796119,1.407086657133843,-1.7615913004855017e-05,0.002346863858157773,0.022612990021933458,0.5701426941372735,2.6178112883849622
12.326673912580729,0.8246398148377696,1.4296996471557764,-1.7615913004855017e-05,0.002346863858157773,0.022612990021933458,0.5682536919344808,2.6178112883849622
12.326656296667723,0.8269866786959273,1.4523126371777098,-1.7615913004855017e-05,0.002346863858157773,0.022612990021933458,0.5682536919344808,2.6178112883849622
12.326638680754717,0.8293335425540851,1.4749256271996432,-1.7615913004855017e-05,0.002346863858157773,0.022612990021933458,0.5682536919344808,2.6178112883849622
12.326621064841712,0.8316804064122428,1.4975386172215766,-1.7615913004855017e-05,0.002346863858157773,0.022612990021933458,0.5682536919344808,2.6178112883849622
12.326603448928706,0.8340272702704006,1.52015160724351,-1.7615913004855017e-05,0.002346863858157773,0.022612990021933458,0.5674758430079063,2.6178112883849622
12.3265858330157,0.8363741341285583,1.5427645972654433,-1.7615913004855017e-05,0.002346863858157773,0.022612990021933458,0.5674758430079063,2.6178112883849622
12.326568217102695,0.8387209979867161,1.5653775872873767,-1.7615913004855017e-05,0.002346863858157773,0.022612990021933458,0.5674758430079063,2.6178112883849622
12.32655060118969,0.8410678618448738,1.5879905773093101,-1.7615913004855017e-05,0.002346863858157773,0.022612990021933458,0.5674758430079063,2.617255152377353
12.326532985276684,0.8434147257030316,1.6106035673312435,-1.7615913004855017e-05,0.002346863858157773,0.022612990021933458,0.5674758430079063,2.6295383635163097
12.326515369363678,0.8457615895611893,1.633216557353177,-1.7615913004855017e-05,0.002346863858157773,0.022612990021933458,0.5674758430079063,2.628527728937644
12.326497753450672,0.848108453419347,1.6558295473751103,-1.7615913004855017e-05,0.002346863858157773,0.022612990021933458,0.5674758430079063,2.6238025779479868
12.326480137537667,0.8504553172775048,1.6784425373970437,-1.7615913004855017e-05,0.002346863858157773,0.022612990021933458,0.5674758430079063,2.630405367064554
12.326462521624661,0.8528021811356625,1.7010555274189771,-1.7615913004855017e-05,0.002346863858157773,0.022612990021933458,0.5674758430079063,2.6437977856849355
12.326444905711655,0.8551490449938203,1.7236685174409105,-1.7615913004855017e-05,0.002346863858157773,0.022612990021933458,0.5674758430079063,2.6539735494026737
12.32642728979865,0.857495908851978,1.746281507462844,-1.7615913004855017e-05,0.002346863858157773,0.022612990021933458,0.5674758430079063,2.6662291199003327
12.326409673885644,0.8598427727101358,1.7688944974847773,-1.7615913004855017e-05,0.002346863858157773,0.022612990021933458,0.5634106703174868,2.66379561972511
12.326392057972638,0.8621896365682935,1.7915074875067107,-1.7615913004855017e-05,0.002346863858157773,0.022612990021933458,0.5653947503989382,2.655073824663928
12.326374442059633,0.8645365004264512,1.8141204775286441,-1.7615913004855017e-05,0.002346863858157773,0.022612990021933458,0.5627531125107254,2.658408061313561
12.326356826146627,0.866883364284609,1.8367334675505775,-1.7615913004855017e-05,0.002346863858157773,0.022612990021933458,0.5612781672288254,2.667234815873034
12.326339210233622,0.8692302281427667,1.859346457572511,-1.7615913004855017e-05,0.002346863858157773,0.022612990021933458,0.5695954391418817,2.6655756755857594
12.326321594320616,0.8715770920009245,1.8819594475944443,-1.7615913004855017e-05,0.002346863858157773,0.022612990021933458,0.5768709075137762,2.667772473676736
12.32630397840761,0.8739239558590822,1.9045724376163777,-1.7615913004855017e-05,0.002346863858157773,0.022612990021933458,0.5703552702175972,2.6756767598728266
12.326286362494605,0.87627081971724,1.9271854276383111,-1.7615913004855017e-05,0.002346863858157773,0.022612990021933458,0.5792296167187077,2.6796504811549817
12.297987616737682,0.8752056520053677,1.9912953412366263,-0.028298745756921668,-0.0010651677118722475,0.06410991359831524,0.5773738065758477,2.6924425521881736
12.26968887098076,0.8741404842934954,2.0554052548349415,-0.028298745756921668,-0.0010651677118722475,0.06410991359831524,0.5722411715827747,2.6782282166387006
12.241390125223838,0.8730753165816232,2.119515168433257,-0.028298745756921668,-0.0010651677118722475,0.06410991359831524,0.5719755433939363,2.6779736215729137
12.213091379466915,0.8720101488697509,2.1836250820315724,-0.028298745756921668,-0.0010651677118722475,0.06410991359831524,0.5775872943502247,2.6935054752370644
12.184792633709993,0.8709449811578787,2.2477349956298878,-0.028298745756921668,-0.0010651677118722475,0.06410991359831524,0.5827293438148738,2.6995357291068416
12.15649388795307,0.8698798134460064,2.311844909228203,-0.028298745756921668,-0.0010651677118722475,0.06410991359831524,0.5792221550148283,2.71484311670005
12.128195142196148,0.8688146457341341,2.3759548228265186,-0.028298745756921668,-0.0010651677118722475,0.06410991359831524,0.5767885050076014,2.7231325090824243
12.099896396439226,0.8677494780222619,2.440064736424834,-0.028298745756921668,-0.0010651677118722475,0.06410991359831524,0.560052008515353,2.7375020568205337
12.071597650682303,0.8666843103103896,2.5041746500231494,-0.028298745756921668,-0.0010651677118722475,0.06410991359831524,0.5594112189308813,2.7441450836364134
12.043298904925381,0.8656191425985174,2.568284563621465,-0.028298745756921668,-0.0010651677118722475,0.06410991359831524,0.5558103500667915,2.7444919939903225
12.015000159168459,0.8645539748866451,2.6323944772197803,-0.028298745756921668,-0.0010651677118722475,0.06410991359831524,0.5603098146960019,2.751344525820744
11.986701413411536,0.8634888071747728,2.6965043908180957,-0.028298745756921668,-0.0010651677118722475,0.06410991359831524,0.5678599319390261,2.7586296199014884
11.958402667654614,0.8624236394629006,2.760614304416411,-0.028298745756921668,-0.0010651677118722475,0.06410991359831524,0.5703039968852525,2.737047726696626
11.930103921897691,0.8613584717510283,2.8247242180147265,-0.028298745756921668,-0.0010651677118722475,0.06410991359831524,0.571408204449137,2.7376070790116933
11.901805176140769,0.860293304039156,2.888834131613042,-0.028298745756921668,-0.0010651677118722475,0.06410991359831524,0.5746853027991982,2.730884322489641
11.873506430383847,0.8592281363272838,2.9529440452113573,-0.028298745756921668,-0.0010651677118722475,0.06410991359831524,0.5709375402968696,2.7355971792078164
11.845207684626924,0.8581629686154115,3.0170539588096728,-0.028298745756921668,-0.0010651677118722475,0.06410991359831524,0.5714835777325936,2.716736998786076
11.816908938870002,0.8570978009035393,3.081163872407988,-0.028298745756921668,-0.0010651677118722475,0.06410991359831524,0.5715207019841668,2.729831729442685
11.78861019311308,0.856032633191667,3.1452737860063036,-0.028298745756921668,-0.0010651677118722475,0.06410991359831524,0.5711615700207098,2.722681955586648
11.760311447356157,0.8549674654797947,3.209383699604619,-0.028298745756921668,-0.0010651677118722475,0.06410991359831524,0.5674103890306909,2.71465005354457
11.732012701599235,0.8539022977679225,3.2734936132029344,-0.028298745756921668,-0.0010651677118722475,0.06410991359831524,0.5680000973587276,2.705276107054431
11.703713955842312,0.8528371300560502,3.33760352680125,-0.028298745756921668,-0.0010651677118722475,0.06410991359831524,0.5662462072800245,2.7083199422138082
11.67541521008539,0.851771962344178,3.4017134403995652,-0.028298745756921668,-0.0010651677118722475,0.06410991359831524,0.5654380219166845,2.726121986260673
11.647116464328468,0.8507067946323057,3.4658233539978807,-0.028298745756921668,-0.0010651677118722475,0.06410991359831524,0.5617036417115695,2.7036903088534414
11.618817718571545,0.8496416269204334,3.529933267596196,-0.028298745756921668,-0.0010651677118722475,0.06410991359831524,0.55765909229842,2.7008236613794283
11.590518972814623,0.8485764592085612,3.5940431811945115,-0.028298745756921668,-0.0010651677118722475,0.06410991359831524,0.5508357720079017,2.699347960454714
11.5622202270577,0.8475112914966889,3.658153094792827,-0.028298745756921668,-0.0010651677118722475,0.06410991359831524,0.5518010984229011,2.7161616665151693
11.533921481300778,0.8464461237848167,3.7222630083911423,-0.028298745756921668,-0.0010651677118722475,0.06410991359831524,0.5536621024051253,2.6890339766893625
11.505622735543856,0.8453809560729444,3.7863729219894577,-0.028298745756921668,-0.0010651677118722475,0.06410991359831524,0.548824820191266,2.691495578892829
11.477323989786933,0.8443157883610721,3.850482835587773,-0.028298745756921668,-0.0010651677118722475,0.06410991359831524,0.5468905347532924,2.709051076687126
11.449025244030011,0.8432506206491999,3.9145927491860886,-0.028298745756921668,-0.0010651677118722475,0.06410991359831524,0.5499401813880178,2.7070869856286834
11.420726498273089,0.8421854529373276,3.978702662784404,-0.028298745756921668,-0.0010651677118722475,0.06410991359831524,0.5521058033940454,2.704811538036332
11.392427752516166,0.8411202852254553,4.042812576382719,-0.028298745756921668,-0.0010651677118722475,0.06410991359831524,0.5541721843313689,2.6947317243955036
11.386203637045714,0.839674395049381,4.05037517351324,-0.00622411547045182,-0.0014458901760743407,0.007562597130520753,0.5539567538333454,2.689202754879358
11.379979521575262,0.8382285048733067,4.057937770643761,-0.00622411547045182,-0.0014458901760743407,0.007562597130520753,0.5615853370139328,2.684893521186969
11.37375540610481,0.8367826146972324,4.065500367774282,-0.00622411547045182,-0.0014458901760743407,0.007562597130520753,0.5605225379523979,2.6747414202133086
11.367531290634357,0.835336724521158,4.073062964904803,-0.00622411547045182,-0.0014458901760743407,0.007562597130520753,0.5681874953520727,2.682793200052507
11.361307175163905,0.8338908343450837,4.0806255620353244,-0.00622411547045182,-0.0014458901760743407,0.007562597130520753,0.5716711534748934,2.683262315869616
11.355083059693452,0.8324449441690094,4.0881881591658455,-0.00622411547045182,-0.0014458901760743407,0.007562597130520753,0.5663426694995314,2.681146377463479
11.348858944223,0.830999053992935,4.095750756296367,-0.00622411547045182,-0.0014458901760743407,0.007562597130520753,0.5669406101305561,2.6851432046625168
11.342634828752548,0.8295531638168607,4.103313353426888,-0.00622411547045182,-0.0014458901760743407,0.007562597130520753,0.5663069011866022,2.68246244308944
11.336410713282095,0.8281072736407864,4.110875950557409,-0.00622411547045182,-0.0014458901760743407,0.007562597130520753,0.5670164159780738,2.6828365938440304
11.330186597811643,0.8266613834647121,4.11843854768793,-0.00622411547045182,-0.0014458901760743407,0.007562597130520753,0.5653883338619846,2.6821970805169864
11.32396248234119,0.8252154932886377,4.126001144818451,-0.00622411547045182,-0.0014458901760743407,0.007562597130520753,0.5653367609159244,2.671485920937945
11.317738366870739,0.8237696031125634,4.133563741948972,-0.00622411547045182,-0.0014458901760743407,0.007562597130520753,0.5575137189708278,2.6670455023929174
11.311514251400286,0.8223237129364891,4.141126339079493,-0.00622411547045182,-0.0014458901760743407,0.007562597130520753,0.5570286119448749,2.674611398169953
11.305290135929834,0.8208778227604148,4.148688936210014,-0.00622411547045182,-0.0014458901760743407,0.007562597130520753,0.550602264545245,2.6830018997597187
11.299066020459382,0.8194319325843404,4.156251533340535,-0.00622411547045182,-0.0014458901760743407,0.007562597130520753,0.5520697533550545,2.682516905069406
11.29284190498893,0.8179860424082661,4.1638141304710565,-0.00622411547045182,-0.0014458901760743407,0.007562597130520753,0.558902449370546,2.6844014646732943
11.286617789518477,0.8165401522321918,4.171376727601578,-0.00622411547045182,-0.0014458901760743407,0.007562597130520753,0.5539967335806051,2.6771078539919166
11.280393674048025,0.8150942620561175,4.178939324732099,-0.00622411547045182,-0.0014458901760743407,0.007562597130520753,0.5492603929154957,2.6789280651113088
11.274169558577572,0.8136483718800431,4.18650192186262,-0.00622411547045182,-0.0014458901760743407,0.007562597130520753,0.5423182064844189,2.6649758054825186
11.26794544310712,0.8122024817039688,4.194064518993141,-0.00622411547045182,-0.0014458901760743407,0.007562597130520753,0.5410393754348893,2.663061559543137
11.261721327636668,0.8107565915278945,4.201627116123662,-0.00622411547045182,-0.0014458901760743407,0.007562597130520753,0.5387547305708291,2.657580244051042
11.255497212166215,0.8093107013518201,4.209189713254183,-0.00622411547045182,-0.0014458901760743407,0.007562597130520753,0.5461146849848243,2.6491510620779266
11.249273096695763,0.8078648111757458,4.216752310384704,-0.00622411547045182,-0.0014458901760743407,0.007562597130520753,0.5389525094669247,2.647454809765412
11.24304898122531,0.8064189209996715,4.224314907515225,-0.00622411547045182,-0.0014458901760743407,0.007562597130520753,0.5351692988331302,2.639476525530309
11.236824865754858,0.8049730308235972,4.231877504645746,-0.00622411547045182,-0.0014458901760743407,0.007562597130520753,0.5339977802012974,2.645604143869338
11.230600750284406,0.8035271406475228,4.2394401017762675,-0.00622411547045182,-0.0014458901760743407,0.007562597130520753,0.5344030745924832,2.634958494180021
11.224376634813954,0.8020812504714485,4.247002698906789,-0.00622411547045182,-0.0014458901760743407,0.007562597130520753,0.5326199073717311,2.6249786698338187
11.218152519343501,0.8006353602953742,4.25456529603731,-0.00622411547045182,-0.0014458901760743407,0.007562597130520753,0.5227483792641037,2.607949746484633
11.21192840387305,0.7991894701192999,4.262127893167831,-0.00622411547045182,-0.0014458901760743407,0.007562597130520753,0.5216733535653012,2.6087645904755883
11.205704288402597,0.7977435799432255,4.269690490298352,-0.00622411547045182,-0.0014458901760743407,0.007562597130520753,0.5161724778345925,2.5996290410439076
11.199480172932144,0.7962976897671512,4.277253087428873,-0.00622411547045182,-0.0014458901760743407,0.007562597130520753,0.516932919886087,2.604889512136545
11.193256057461692,0.7948517995910769,4.284815684559394,-0.00622411547045182,-0.0014458901760743407,0.007562597130520753,0.5163538486851506,2.608065384246692
11.18703194199124,0.7934059094150026,4.292378281689915,-0.00622411547045182,-0.0014458901760743407,0.007562597130520753,0.5113926179375335,2.6102636579514282
11.180807826520788,0.7919600192389282,4.299940878820436,-0.00622411547045182,-0.0014458901760743407,0.007562597130520753,0.5129529928815364,2.593202112638146
11.174583711050335,0.7905141290628539,4.307503475950957,-0.00622411547045182,-0.0014458901760743407,0.007562597130520753,0.5027587823332227,2.597333167626782
11.168359595579883,0.7890682388867796,4.3150660730814785,-0.00622411547045182,-0.0014458901760743407,0.007562597130520753,0.49657275397879413,2.5931986573090575
11.16213548010943,0.7876223487107052,4.322628670212,-0.00622411547045182,-0.0014458901760743407,0.007562597130520753,0.4908561428524159,2.6037115343312327
11.155911364638978,0.7861764585346309,4.330191267342521,-0.00622411547045182,-0.0014458901760743407,0.007562597130520753,0.49587314496597534,2.5924164603904534
11.149687249168526,0.7847305683585566,4.337753864473042,-0.00622411547045182,-0.0014458901760743407,0.007562597130520753,0.49819746426629075,2.579154849744762
11.143463133698074,0.7832846781824823,4.345316461603563,-0.00622411547045182,-0.0014458901760743407,0.007562597130520753,0.4857159360951112,2.5700668978839567
11.137239018227621,0.7818387880064079,4.352879058734084,-0.00622411547045182,-0.0014458901760743407,0.007562597130520753,0.49095429165648974,2.592143983775144
11.131014902757169,0.7803928978303336,4.360441655864605,-0.00622411547045182,-0.0014458901760743407,0.007562597130520753,0.48748799030927237,2.595108240449721
11.123731508217675,0.7916506172035032,4.421218004491189,-0.007283394539492904,0.011257719373169528,0.06077634862658443,0.49834354583419027,2.600087490433353
11.116448113678182,0.8029083365766727,4.4819943531177735,-0.007283394539492904,0.011257719373169528,0.06077634862658443,0.49273471928810375,2.5903778184219868
11.109164719138688,0.8141660559498423,4.542770701744358,-0.007283394539492904,0.011257719373169528,0.06077634862658443,0.4912780779682581,2.6025072813383585
11.101881324599194,0.8254237753230118,4.603547050370942,-0.007283394539492904,0.011257719373169528,0.06077634862658443,0.48796822624252706,2.608971287286871
11.0945979300597,0.8366814946961814,4.664323398997526,-0.007283394539492904,0.011257719373169528,0.06077634862658443,0.488316539569331,2.613218412918461
11.087314535520207,0.8479392140693509,4.72509974762411,-0.007283394539492904,0.011257719373169528,0.06077634862658443,0.49677442870328065,2.614341943649784
11.080031140980713,0.8591969334425205,4.7858760962506945,-0.007283394539492904,0.011257719373169528,0.06077634862658443,0.4954339375591741,2.6095655413835046
11.07274774644122,0.87045465281569,4.846652444877279,-0.007283394539492904,0.011257719373169528,0.06077634862658443,0.4977074016695252,2.622986138267251
11.065464351901726,0.8817123721888596,4.907428793503863,-0.007283394539492904,0.011257719373169528,0.06077634862658443,0.5010890174521805,2.613330171836877
11.058180957362232,0.8929700915620291,4.968205142130447,-0.007283394539492904,0.011257719373169528,0.06077634862658443,0.5018706792746557,2.5931217062494576
11.050897562822739,0.9042278109351987,5.028981490757031,-0.007283394539492904,0.011257719373169528,0.06077634862658443,0.4951721347542371,2.5942056839324024
11.043614168283245,0.9154855303083682,5.089757839383616,-0.007283394539492904,0.011257719373169528,0.06077634862658443,0.49471622705652646,2.593237976492011
11.036330773743751,0.9267432496815378,5.1505341880102,-0.007283394539492904,0.011257719373169528,0.06077634862658443,0.487728573904351,2.600018670428406
11.029047379204258,0.9380009690547073,5.211310536636784,-0.007283394539492904,0.011257719373169528,0.06077634862658443,0.4840770852189297,2.5920787381745134
11.021763984664764,0.9492586884278769,5.272086885263368,-0.007283394539492904,0.011257719373169528,0.06077634862658443,0.4863206424124461,2.6015463674343233
11.01448059012527,0.9605164078010464,5.332863233889952,-0.007283394539492904,0.011257719373169528,0.06077634862658443,0.48825929714390737,2.6036317863449323
11.007197195585777,0.971774127174216,5.393639582516537,-0.007283394539492904,0.011257719373169528,0.06077634862658443,0.47792684289911924,2.5863623976858747
10.999913801046283,0.9830318465473855,5.454415931143121,-0.007283394539492904,0.011257719373169528,0.06077634862658443,0.4788851688192548,2.5868862187491697
10.99263040650679,0.9942895659205551,5.515192279769705,-0.007283394539492904,0.011257719373169528,0.06077634862658443,0.4835564666001599,2.5914242725603662
10.985347011967296,1.0055472852937246,5.575968628396289,-0.007283394539492904,0.011257719373169528,0.06077634862658443,0.4780025496637159,2.601803575202762
10.978063617427802,1.0168050046668942,5.6367449770228735,-0.007283394539492904,0.011257719373169528,0.06077634862658443,0.4683111974354815,2.6125807744320952
10.970780222888308,1.0280627240400637,5.697521325649458,-0.007283394539492904,0.011257719373169528,0.06077634862658443,0.4668226990929312,2.611337744646834
10.963496828348815,1.0393204434132333,5.758297674276042,-0.007283394539492904,0.011257719373169528,0.06077634862658443,0.46979146279415857,2.624535453014287
10.956213433809321,1.0505781627864028,5.819074022902626,-0.007283394539492904,0.011257719373169528,0.06077634862658443,0.465373051657159,2.604452905765242
10.948930039269827,1.0618358821595724,5.87985037152921,-0.007283394539492904,0.011257719373169528,0.06077634862658443,0.46050855846951144,2.618797078199252
10.941646644730334,1.073093601532742,5.9406267201557945,-0.007283394539492904,0.011257719373169528,0.06077634862658443,0.46814110750084936,2.6034119612860755
10.93436325019084,1.0843513209059115,6.001403068782379,-0.007283394539492904,0.011257719373169528,0.06077634862658443,0.46998607033708456,2.5840912511068663
10.927079855651346,1.095609040279081,6.062179417408963,-0.007283394539492904,0.011257719373169528,0.06077634862658443,0.4748951210140251,2.5858272587227824
10.919796461111853,1.1068667596522506,6.122955766035547,-0.007283394539492904,0.011257719373169528,0.06077634862658443,0.47264909445188663,2.5908117586753305
10.912513066572359,1.1181244790254201,6.183732114662131,-0.007283394539492904,0.011257719373169528,0.06077634862658443,0.47446860181957146,2.5976925020386963
10.905229672032865,1.1293821983985897,6.244508463288716,-0.007283394539492904,0.011257719373169528,0.06077634862658443,0.474283744932869,2.599928245072371
10.897946277493372,1.1406399177717592,6.3052848119153,-0.007283394539492904,0.011257719373169528,0.06077634862658443,0.47566265400563473,2.6020143710342953
10.890662882953878,1.1518976371449288,6.366061160541884,-0.007283394539492904,0.011257719373169528,0.06077634862658443,0.4836971628689513,2.607989861452988
10.883379488414384,1.1631553565180983,6.426837509168468,-0.007283394539492904,0.011257719373169528,0.06077634862658443,0.48134105848562897,2.601122887574519
10.87609609387489,1.1744130758912679,6.487613857795052,-0.007283394539492904,0.011257719373169528,0.06077634862658443,0.4773680140585939,2.5989927246214672
10.868812699335397,1.1856707952644374,6.548390206421637,-0.007283394539492904,0.011257719373169528,0.06077634862658443,0.4766411114617715,2.596144879254406
10.861529304795903,1.196928514637607,6.609166555048221,-0.007283394539492904,0.011257719373169528,0.06077634862658443,0.48031717844581384,2.588432968648602
10.85424591025641,1.2081862340107765,6.669942903674805,-0.007283394539492904,0.011257719373169528,0.06077634862658443,0.4758183969285373,2.5705060402880555
10.846962515716916,1.219443953383946,6.730719252301389,-0.007283394539492904,0.011257719373169528,0.06077634862658443,0.4763606199741396,2.5579170759395167
10.839679121177422,1.2307016727571156,6.791495600927973,-0.007283394539492904,0.011257719373169528,0.06077634862658443,0.4574953115197369,2.529713639500325
10.832395726637928,1.2419593921302852,6.852271949554558,-0.007283394539492904,0.011257719373169528,0.06077634862658443,0.45211710466718474,2.520776598710482
10.825112332098435,1.2532171115034547,6.913048298181142,-0.007283394539492904,0.011257719373169528,0.06077634862658443,0.4593814460395813,2.4871824795629456
10.817828937558941,1.2644748308766243,6.973824646807726,-0.007283394539492904,0.011257719373169528,0.06077634862658443,0.46168915912477476,2.4721917929286485
10.881800914428919,1.2760548864094368,6.965902225476977,0.06397197686997676,0.011580055532812519,-0.007922421330748728,0.46403614336329374,2.4676769155246294
10.945772891298896,1.2876349419422493,6.957979804146229,0.06397197686997676,0.011580055532812519,-0.007922421330748728,0.46787295696410536,2.479382952656166
11.009744868168873,1.2992149974750618,6.95005738281548,0.06397197686997676,0.011580055532812519,-0.007922421330748728,0.47069355001312224,2.4858089337512026
11.07371684503885,1.3107950530078742,6.942134961484731,0.06397197686997676,0.011580055532812519,-0.007922421330748728,0.4751636734258394,2.4945304244854083
11.137688821908828,1.3223751085406867,6.9342125401539825,0.06397197686997676,0.011580055532812519,-0.007922421330748728,0.4766263237786245,2.488188482413273
11.201660798778805,1.3339551640734992,6.926290118823234,0.06397197686997676,0.011580055532812519,-0.007922421330748728,0.4728739312607039,2.485517648329051
11.265632775648783,1.3455352196063117,6.918367697492485,0.06397197686997676,0.011580055532812519,-0.007922421330748728,0.4608241197993108,2.4824978125628308
11.32960475251876,1.3571152751391242,6.910445276161736,0.06397197686997676,0.011580055532812519,-0.007922421330748728,0.45168054389092843,2.4739637803597514
11.393576729388737,1.3686953306719367,6.902522854830988,0.06397197686997676,0.011580055532812519,-0.007922421330748728,0.44973590999700624,2.4878097593088966
11.457548706258715,1.3802753862047492,6.894600433500239,0.06397197686997676,0.011580055532812519,-0.007922421330748728,0.44737002711145907,2.4820433211936077
11.521520683128692,1.3918554417375617,6.88667801216949,0.06397197686997676,0.011580055532812519,-0.007922421330748728,0.44941934866363414,2.498208286426199
11.58549265999867,1.4034354972703742,6.878755590838741,0.06397197686997676,0.011580055532812519,-0.007922421330748728,0.45706452389828467,2.495449426020291
11.649464636868647,1.4150155528031867,6.870833169507993,0.06397197686997676,0.011580055532812519,-0.007922421330748728,0.44851846076714685,2.486801231178002
11.713436613738624,1.4265956083359992,6.862910748177244,0.06397197686997676,0.011580055532812519,-0.007922421330748728,0.4496644805514565,2.4925048899348394
11.777408590608601,1.4381756638688117,6.854988326846495,0.06397197686997676,0.011580055532812519,-0.007922421330748728,0.448971888327031,2.50420719818688
11.841380567478579,1.4497557194016242,6.847065905515747,0.06397197686997676,0.011580055532812519,-0.007922421330748728,0.4596390378241468,2.505083000849138
11.905352544348556,1.4613357749344367,6.839143484184998,0.06397197686997676,0.011580055532812519,-0.007922421330748728,0.44868089411562684,2.5132528481247642
11.969324521218534,1.4729158304672492,6.831221062854249,0.06397197686997676,0.011580055532812519,-0.007922421330748728,0.4486989962204007,2.515423669497554
12.03329649808851,1.4844958860000617,6.8232986415235,0.06397197686997676,0.011580055532812519,-0.007922421330748728,0.4464472469408575,2.520973570889379
12.097268474958488,1.4960759415328742,6.815376220192752,0.06397197686997676,0.011580055532812519,-0.007922421330748728,0.4385574702455488,2.5288541566639298
12.161240451828466,1.5076559970656866,6.807453798862003,0.06397197686997676,0.011580055532812519,-0.007922421330748728,0.44713815561324144,2.523258612163345
12.225212428698443,1.5192360525984991,6.799531377531254,0.06397197686997676,0.011580055532812519,-0.007922421330748728,0.43924272969234873,2.526828385557829
12.28918440556842,1.5308161081313116,6.7916089562005055,0.06397197686997676,0.011580055532812519,-0.007922421330748728,0.44652745882987466,2.5183522863137235
12.353156382438398,1.5423961636641241,6.783686534869757,0.06397197686997676,0.011580055532812519,-0.007922421330748728,0.44259671870174944,2.5220616690703648
12.417128359308375,1.5539762191969366,6.775764113539008,0.06397197686997676,0.011580055532812519,-0.007922421330748728,0.44196958591597596,2.5249666445401875
12.481100336178352,1.5655562747297491,6.767841692208259,0.06397197686997676,0.011580055532812519,-0.007922421330748728,0.43121326352292844,2.519704651994933
12.54507231304833,1.5771363302625616,6.759919270877511,0.06397197686997676,0.011580055532812519,-0.007922421330748728,0.43470591587196156,2.520791964648925
12.609044289918307,1.588716385795374,6.751996849546762,0.06397197686997676,0.011580055532812519,-0.007922421330748728,0.4416200031014786,2.524135766334674
12.673016266788284,1.6002964413281866,6.744074428216013,0.06397197686997676,0.011580055532812519,-0.007922421330748728,0.4371456385869174,2.50859350291921
12.736988243658262,1.611876496860999,6.7361520068852645,0.06397197686997676,0.011580055532812519,-0.007922421330748728,0.44501819597254333,2.5225224885487076
12.80096022052824,1.6234565523938116,6.728229585554516,0.06397197686997676,0.011580055532812519,-0.007922421330748728,0.44692464238964075,2.5224431804519862
12.864932197398216,1.635036607926624,6.720307164223767,0.06397197686997676,0.011580055532812519,-0.007922421330748728,0.43849517655320713,2.5131016561927004
12.928904174268194,1.6466166634594366,6.712384742893018,0.06397197686997676,0.011580055532812519,-0.007922421330748728,0.4464898868581896,2.5130672184857747
12.992876151138171,1.658196718992249,6.70446232156227,0.06397197686997676,0.011580055532812519,-0.007922421330748728,0.45178012844623033,2.505170996846984
13.056848128008149,1.6697767745250616,6.696539900231521,0.06397197686997676,0.011580055532812519,-0.007922421330748728,0.4505337554327391,2.508629128369015
13.120820104878126,1.681356830057874,6.688617478900772,0.06397197686997676,0.011580055532812519,-0.007922421330748728,0.4493757795597381,2.5170930462611087
13.118965288364112,1.6696254978202254,6.696608754016474,-0.0018548165140139714,-0.011731332237648672,0.007991275115701437,0.4472248742584287,2.5197468398236547
13.117110471850099,1.6578941655825767,6.704600029132175,-0.0018548165140139714,-0.011731332237648672,0.007991275115701437,0.4465323089305365,2.512418239778347
13.115255655336085,1.646162833344928,6.712591304247876,-0.0018548165140139714,-0.011731332237648672,0.007991275115701437,0.4468872835998615,2.5009286628794523
13.113400838822072,1.6344315011072794,6.720582579363578,-0.0018548165140139714,-0.011731332237648672,0.007991275115701437,0.444641386103189,2.5000050419241773
13.111546022308058,1.6227001688696308,6.728573854479279,-0.0018548165140139714,-0.011731332237648672,0.007991275115701437,0.4464994568339184,2.4978550074801835
13.109691205794045,1.610968836631982,6.736565129594981,-0.0018548165140139714,-0.011731332237648672,0.007991275115701437,0.44287340088233224,2.5069061557951295
13.107836389280031,1.5992375043943334,6.744556404710682,-0.0018548165140139714,-0.011731332237648672,0.007991275115701437,0.4492411526748793,2.523439225022579
13.105981572766018,1.5875061721566848,6.7525476798263835,-0.0018548165140139714,-0.011731332237648672,0.007991275115701437,0.44609767703108505,2.5347321226284993
13.104126756252004,1.575774839919036,6.760538954942085,-0.0018548165140139714,-0.011731332237648672,0.007991275115701437,0.4458550433391998,2.534532291278673
13.10227193973799,1.5640435076813874,6.768530230057786,-0.0018548165140139714,-0.011731332237648672,0.007991275115701437,0.446305776238309,2.5169317193807865
13.100417123223977,1.5523121754437388,6.776521505173488,-0.0018548165140139714,-0.011731332237648672,0.007991275115701437,0.4469947573107177,2.5052501055637375
13.098562306709963,1.5405808432060901,6.784512780289189,-0.0018548165140139714,-0.011731332237648672,0.007991275115701437,0.45366809103940275,2.5157911594365596
13.09670749019595,1.5288495109684415,6.7925040554048906,-0.0018548165140139714,-0.011731332237648672,0.007991275115701437,0.4491349051800247,2.5064219349130825
13.094852673681936,1.5171181787307928,6.800495330520592,-0.0018548165140139714,-0.011731332237648672,0.007991275115701437,0.44363561636762977,2.4952184018677266
13.092997857167923,1.5053868464931441,6.808486605636293,-0.0018548165140139714,-0.011731332237648672,0.007991275115701437,0.4463873972127733,2.5231100418155936
13.09114304065391,1.4936555142554955,6.816477880751995,-0.0018548165140139714,-0.011731332237648672,0.007991275115701437,0.44866036244505225,2.5162013192316146
13.089288224139896,1.4819241820178468,6.824469155867696,-0.0018548165140139714,-0.011731332237648672,0.007991275115701437,0.45351747777920814,2.5156930532463884
13.087433407625882,1.4701928497801982,6.832460430983398,-0.0018548165140139714,-0.011731332237648672,0.007991275115701437,0.4616651389478139,2.5385615671592636
13.085578591111869,1.4584615175425495,6.840451706099099,-0.0018548165140139714,-0.011731332237648672,0.007991275115701437,0.4572531296999098,2.540595333358573
13.085079930627789,1.456491310363083,6.894566144573158,-0.0004986604840796408,-0.0019702071794664338,0.05411443847405887,0.45051395024809054,2.536007339205617
13.084581270143708,1.4545211031836165,6.948680583047217,-0.0004986604840796408,-0.0019702071794664338,0.05411443847405887,0.44789044731602196,2.5318962033702626
13.084082609659628,1.45255089600415,7.002795021521276,-0.0004986604840796408,-0.0019702071794664338,0.05411443847405887,0.44871555861800316,2.5439985637454763
13.083583949175548,1.4505806888246835,7.056909459995335,-0.0004986604840796408,-0.0019702071794664338,0.05411443847405887,0.4481431767723199,2.5189854761918014
13.083085288691468,1.448610481645217,7.111023898469394,-0.0004986604840796408,-0.0019702071794664338,0.05411443847405887,0.44903155983252346,2.507411209069249
13.082586628207387,1.4466402744657505,7.165138336943453,-0.0004986604840796408,-0.0019702071794664338,0.05411443847405887,0.45555040261324287,2.508068070297806
13.082087967723307,1.444670067286284,7.219252775417512,-0.0004986604840796408,-0.0019702071794664338,0.05411443847405887,0.44777456144918837,2.5007157828064592
13.081589307239227,1.4426998601068175,7.2733672138915715,-0.0004986604840796408,-0.0019702071794664338,0.05411443847405887,0.44846042399722497,2.4984732788871997
13.081090646755147,1.440729652927351,7.3274816523656305,-0.0004986604840796408,-0.0019702071794664338,0.05411443847405887,0.4484060643157087,2.496667531507072
13.080591986271067,1.4387594457478845,7.38159609083969,-0.0004986604840796408,-0.0019702071794664338,0.05411443847405887,0.43769189003663395,2.5021800982994487
13.080093325786986,1.436789238568418,7.435710529313749,-0.0004986604840796408,-0.0019702071794664338,0.05411443847405887,0.42693821738513565,2.503956306175575
13.079594665302906,1.4348190313889515,7.489824967787808,-0.0004986604840796408,-0.0019702071794664338,0.05411443847405887,0.41636683573048294,2.5049755053306546
13.079096004818826,1.432848824209485,7.543939406261867,-0.0004986604840796408,-0.0019702071794664338,0.05411443847405887,0.418950218776585,2.513671886442108
13.078597344334746,1.4308786170300185,7.598053844735926,-0.0004986604840796408,-0.0019702071794664338,0.05411443847405887,0.4249198271738274,2.520523275024759
13.078098683850666,1.428908409850552,7.652168283209985,-0.0004986604840796408,-0.0019702071794664338,0.05411443847405887,0.4373304638687314,2.526575306619588
13.077600023366585,1.4269382026710855,7.706282721684044,-0.0004986604840796408,-0.0019702071794664338,0.05411443847405887,0.4441883555023335,2.5140032476545437
13.077101362882505,1.424967995491619,7.760397160158103,-0.0004986604840796408,-0.0019702071794664338,0.05411443847405887,0.4487684042442192,2.5322245005167163
13.076602702398425,1.4229977883121525,7.814511598632162,-0.0004986604840796408,-0.0019702071794664338,0.05411443847405887,0.4547235930958155,2.5478049634360334
13.076104041914345,1.421027581132686,7.868626037106221,-0.0004986604840796408,-0.0019702071794664338,0.05411443847405887,0.4534361387061906,2.55949433266994
13.075605381430265,1.4190573739532195,7.92274047558028,-0.0004986604840796408,-0.0019702071794664338,0.05411443847405887,0.45654256560303014,2.549822419525823
13.075106720946184,1.417087166773753,7.976854914054339,-0.0004986604840796408,-0.0019702071794664338,0.05411443847405887,0.46283541225948804,2.5356015740300517
13.074608060462104,1.4151169595942865,8.030969352528398,-0.0004986604840796408,-0.0019702071794664338,0.05411443847405887,0.46234820397165416,2.5530789588403406
13.074109399978024,1.41314675241482,8.085083791002457,-0.0004986604840796408,-0.0019702071794664338,0.05411443847405887,0.4672756289847317,2.5537077348920967
13.073610739493944,1.4111765452353535,8.139198229476516,-0.0004986604840796408,-0.0019702071794664338,0.05411443847405887,0.46886437469872455,2.5540009803747608
13.073112079009864,1.409206338055887,8.193312667950575,-0.0004986604840796408,-0.0019702071794664338,0.05411443847405887,0.4748004895563866,2.5649673143871987
13.072613418525783,1.4072361308764205,8.247427106424635,-0.0004986604840796408,-0.0019702071794664338,0.05411443847405887,0.4732509814216237,2.5760678262510353
13.072114758041703,1.405265923696954,8.301541544898694,-0.0004986604840796408,-0.0019702071794664338,0.05411443847405887,0.480819993488358,2.561110842907196
13.071616097557623,1.4032957165174875,8.355655983372753,-0.0004986604840796408,-0.0019702071794664338,0.05411443847405887,0.4878418633317595,2.563063336958401
13.071117437073543,1.401325509338021,8.409770421846812,-0.0004986604840796408,-0.0019702071794664338,0.05411443847405887,0.49563707200759016,2.5797070716153394
13.070618776589463,1.3993553021585545,8.46388486032087,-0.0004986604840796408,-0.0019702071794664338,0.05411443847405887,0.49269137988613565,2.574827562194476
13.070120116105382,1.397385094979088,8.51799929879493,-0.0004986604840796408,-0.0019702071794664338,0.05411443847405887,0.4990366348512354,2.570679905308787
13.069621455621302,1.3954148877996215,8.572113737268989,-0.0004986604840796408,-0.0019702071794664338,0.05411443847405887,0.49966386787669115,2.559415254677156
13.069122795137222,1.393444680620155,8.626228175743048,-0.0004986604840796408,-0.0019702071794664338,0.05411443847405887,0.5078806192413162,2.557081129676168
13.068624134653142,1.3914744734406885,8.680342614217107,-0.0004986604840796408,-0.0019702071794664338,0.05411443847405887,0.5055804266120144,2.54443316463651
13.068125474169062,1.389504266261222,8.734457052691166,-0.0004986604840796408,-0.0019702071794664338,0.05411443847405887,0.512117355465133,2.5425168205663184
13.067626813684981,1.3875340590817555,8.788571491165225,-0.0004986604840796408,-0.0019702071794664338,0.05411443847405887,0.5052036719347192,2.53471137349348
13.067128153200901,1.385563851902289,8.842685929639284,-0.0004986604840796408,-0.0019702071794664338,0.05411443847405887,0.5047351455267429,2.5445965548619487
13.066629492716821,1.3835936447228225,8.896800368113343,-0.0004986604840796408,-0.0019702071794664338,0.05411443847405887,0.5036983359402315,2.5279990982416
13.06613083223274,1.381623437543356,8.950914806587402,-0.0004986604840796408,-0.0019702071794664338,0.05411443847405887,0.5031816242805714,2.5330446252827024
13.06563217174866,1.3796532303638895,9.005029245061461,-0.0004986604840796408,-0.0019702071794664338,0.05411443847405887,0.4926032556980131,2.5537253976052128
13.06513351126458,1.377683023184423,9.05914368353552,-0.0004986604840796408,-0.0019702071794664338,0.05411443847405887,0.48870887389803214,2.5661460337476356
13.0646348507805,1.3757128160049565,9.11325812200958,-0.0004986604840796408,-0.0019702071794664338,0.05411443847405887,0.4768126512352703,2.5660307472847337
13.06413619029642,1.37374260882549,9.167372560483638,-0.0004986604840796408,-0.0019702071794664338,0.05411443847405887,0.47851238547508923,2.5552216877699694
13.06363752981234,1.3717724016460235,9.221486998957698,-0.0004986604840796408,-0.0019702071794664338,0.05411443847405887,0.4852770894543234,2.546021889444521
13.06313886932826,1.369802194466557,9.275601437431757,-0.0004986604840796408,-0.0019702071794664338,0.05411443847405887,0.48350696757533784,2.550834736553736
13.06264020884418,1.3678319872870905,9.329715875905816,-0.0004986604840796408,-0.0019702071794664338,0.05411443847405887,0.4816185146402148,2.566043409540234
13.062141548360099,1.365861780107624,9.383830314379875,-0.0004986604840796408,-0.0019702071794664338,0.05411443847405887,0.4773564449343363,2.565686418829233
13.061642887876019,1.3638915729281575,9.437944752853934,-0.0004986604840796408,-0.0019702071794664338,0.05411443847405887,0.4642058328134757,2.5714257914087217
13.061144227391939,1.361921365748691,9.492059191327993,-0.0004986604840796408,-0.0019702071794664338,0.05411443847405887,0.4772448819306643,2.556764276345716
13.060645566907858,1.3599511585692245,9.546173629802052,-0.0004986604840796408,-0.0019702071794664338,0.05411443847405887,0.48199135133588766,2.5668743158077993
13.060146906423778,1.357980951389758,9.600288068276111,-0.0004986604840796408,-0.0019702071794664338,0.05411443847405887,0.4905103471452526,2.568720279135892
13.059648245939698,1.3560107442102916,9.65440250675017,-0.0004986604840796408,-0.0019702071794664338,0.05411443847405887,0.491380884931308,2.5638081267649104
13.059149585455618,1.354040537030825,9.708516945224229,-0.0004986604840796408,-0.0019702071794664338,0.05411443847405887,0.48949886834930795,2.5770501682588347
13.058650924971538,1.3520703298513586,9.762631383698288,-0.0004986604840796408,-0.0019702071794664338,0.05411443847405887,0.48692966324937165,2.597951106364504
13.058152264487457,1.350100122671892,9.816745822172347,-0.0004986604840796408,-0.0019702071794664338,0.05411443847405887,0.4852060421654232,2.5990845731435717
13.057653604003377,1.3481299154924256,9.870860260646406,-0.0004986604840796408,-0.0019702071794664338,0.05411443847405887,0.4855999850159509,2.5922526885283403
13.057154943519297,1.346159708312959,9.924974699120465,-0.0004986604840796408,-0.0019702071794664338,0.05411443847405887,0.48503379211853304,2.5916349684996765
13.056656283035217,1.3441895011334926,9.979089137594524,-0.0004986604840796408,-0.0019702071794664338,0.05411443847405887,0.4833055449183012,2.585891423843133
13.044255396894984,1.343563415201931,9.971035620790477,-0.012400886140231873,-0.0006260859315617343,-0.008053516804046916,0.47926824939106083,2.58327530372562
13.031854510754751,1.3429373292703692,9.96298210398643,-0.012400886140231873,-0.0006260859315617343,-0.008053516804046916,0.4688654853840031,2.5747031159355673
13.019453624614519,1.3423112433388076,9.954928587182383,-0.012400886140231873,-0.0006260859315617343,-0.008053516804046916,0.47212100472209884,2.5603497851592154
13.007052738474286,1.341685157407246,9.946875070378336,-0.012400886140231873,-0.0006260859315617343,-0.008053516804046916,0.4738327552987223,2.5705191439959045
12.994651852334053,1.3410590714756843,9.93882155357429,-0.012400886140231873,-0.0006260859315617343,-0.008053516804046916,0.48210176892917067,2.5758440363056248
12.98225096619382,1.3404329855441226,9.930768036770242,-0.012400886140231873,-0.0006260859315617343,-0.008053516804046916,0.48739309855235574,2.6011648035561357
12.969850080053588,1.339806899612561,9.922714519966195,-0.012400886140231873,-0.0006260859315617343,-0.008053516804046916,0.48368485986343424,2.6059491585943864
12.957449193913355,1.3391808136809993,9.914661003162148,-0.012400886140231873,-0.0006260859315617343,-0.008053516804046916,0.48002819820764936,2.596308262679365
12.945048307773122,1.3385547277494376,9.906607486358102,-0.012400886140231873,-0.0006260859315617343,-0.008053516804046916,0.47705588989719466,2.6167119381184256
12.93264742163289,1.337928641817876,9.898553969554055,-0.012400886140231873,-0.0006260859315617343,-0.008053516804046916,0.48435823147138657,2.6057899450871034
12.920246535492657,1.3373025558863143,9.890500452750008,-0.012400886140231873,-0.0006260859315617343,-0.008053516804046916,0.4792613965524954,2.6024254991901694
12.907845649352424,1.3366764699547526,9.88244693594596,-0.012400886140231873,-0.0006260859315617343,-0.008053516804046916,0.48011506626756745,2.6045873188291204
12.895444763212192,1.336050384023191,9.874393419141914,-0.012400886140231873,-0.0006260859315617343,-0.008053516804046916,0.4819983901113731,2.5930419968422878
12.883043877071959,1.3354242980916293,9.866339902337867,-0.012400886140231873,-0.0006260859315617343,-0.008053516804046916,0.4739225641002364,2.598690728181447
12.870642990931726,1.3347982121600677,9.85828638553382,-0.012400886140231873,-0.0006260859315617343,-0.008053516804046916,0.4800864074948905,2.5943414413066472
12.858242104791493,1.334172126228506,9.850232868729773,-0.012400886140231873,-0.0006260859315617343,-0.008053516804046916,0.481889162206915,2.590248112379802
12.84584121865126,1.3335460402969443,9.842179351925726,-0.012400886140231873,-0.0006260859315617343,-0.008053516804046916,0.48179066859213326,2.5846378383539497
12.833440332511028,1.3329199543653827,9.834125835121679,-0.012400886140231873,-0.0006260859315617343,-0.008053516804046916,0.47799294548466353,2.587636601187075
12.821039446370795,1.332293868433821,9.826072318317632,-0.012400886140231873,-0.0006260859315617343,-0.008053516804046916,0.4774961056719776,2.5643435983456
12.808638560230563,1.3316677825022594,9.818018801513585,-0.012400886140231873,-0.0006260859315617343,-0.008053516804046916,0.47268129300921935,2.577248064646618
12.79623767409033,1.3310416965706977,9.809965284709538,-0.012400886140231873,-0.0006260859315617343,-0.008053516804046916,0.4774716865320863,2.563175395593037
12.783836787950097,1.330415610639136,9.80191176790549,-0.012400886140231873,-0.0006260859315617343,-0.008053516804046916,0.46760571017701674,2.573629132839155
12.771435901809864,1.3297895247075744,9.793858251101444,-0.012400886140231873,-0.0006260859315617343,-0.008053516804046916,0.4692434722296917,2.590993055479096
12.759035015669632,1.3291634387760127,9.785804734297397,-0.012400886140231873,-0.0006260859315617343,-0.008053516804046916,0.4728642532905192,2.5964868136062256
12.746634129529399,1.328537352844451,9.77775121749335,-0.012400886140231873,-0.0006260859315617343,-0.008053516804046916,0.4681316430790695,2.5831932692993034
12.734233243389166,1.3279112669128894,9.769697700689303,-0.012400886140231873,-0.0006260859315617343,-0.008053516804046916,0.46830204936015546,2.577602225101475
12.721832357248934,1.3272851809813278,9.761644183885256,-0.012400886140231873,-0.0006260859315617343,-0.008053516804046916,0.4695827287461831,2.5839691228353194
12.7094314711087,1.326659095049766,9.753590667081209,-0.012400886140231873,-0.0006260859315617343,-0.008053516804046916,0.47389661615085665,2.5757426028616304
12.697030584968468,1.3260330091182044,9.745537150277162,-0.012400886140231873,-0.0006260859315617343,-0.008053516804046916,0.4653394911021302,2.567140576002303
12.684629698828235,1.3254069231866428,9.737483633473115,-0.012400886140231873,-0.0006260859315617343,-0.008053516804046916,0.4597450450575501,2.5474018636444344
12.672228812688003,1.3247808372550811,9.729430116669068,-0.012400886140231873,-0.0006260859315617343,-0.008053516804046916,0.45401417569069136,2.543327295169806
12.65982792654777,1.3241547513235195,9.721376599865021,-0.012400886140231873,-0.0006260859315617343,-0.008053516804046916,0.4510504239778202,2.542945119536666
12.647427040407537,1.3235286653919578,9.713323083060974,-0.012400886140231873,-0.0006260859315617343,-0.008053516804046916,0.4505840737124098,2.5335661979329727
12.635026154267305,1.3229025794603961,9.705269566256927,-0.012400886140231873,-0.0006260859315617343,-0.008053516804046916,0.4522574383070317,2.544575248561144
12.622625268127072,1.3222764935288345,9.69721604945288,-0.012400886140231873,-0.0006260859315617343,-0.008053516804046916,0.44644943269520243,2.55292484149732
12.61022438198684,1.3216504075972728,9.689162532648833,-0.012400886140231873,-0.0006260859315617343,-0.008053516804046916,0.45231770370395347,2.538216457877479
12.597823495846606,1.3210243216657112,9.681109015844786,-0.012400886140231873,-0.0006260859315617343,-0.008053516804046916,0.4538328387906423,2.530044689584661
12.585422609706374,1.3203982357341495,9.67305549904074,-0.012400886140231873,-0.0006260859315617343,-0.008053516804046916,0.459922160610034,2.520200042471056
12.573021723566141,1.3197721498025878,9.665001982236692,-0.012400886140231873,-0.0006260859315617343,-0.008053516804046916,0.4511275081234978,2.532973925850122
12.560620837425908,1.3191460638710262,9.656948465432645,-0.012400886140231873,-0.0006260859315617343,-0.008053516804046916,0.4544855778316321,2.522789244225746
12.548219951285676,1.3185199779394645,9.648894948628598,-0.012400886140231873,-0.0006260859315617343,-0.008053516804046916,0.44112809325130486,2.5193361857336107
12.535819065145443,1.3178938920079029,9.640841431824551,-0.012400886140231873,-0.0006260859315617343,-0.008053516804046916,0.4350049193397325,2.52164836492055
12.52341817900521,1.3172678060763412,9.632787915020504,-0.012400886140231873,-0.0006260859315617343,-0.008053516804046916,0.43920018452865767,2.504412968305476
12.511017292864977,1.3166417201447795,9.624734398216457,-0.012400886140231873,-0.0006260859315617343,-0.008053516804046916,0.4395737214695456,2.5079591753275494
12.498616406724745,1.3160156342132179,9.61668088141241,-0.012400886140231873,-0.0006260859315617343,-0.008053516804046916,0.42930781803756324,2.52856359902657
12.486215520584512,1.3153895482816562,9.608627364608363,-0.012400886140231873,-0.0006260859315617343,-0.008053516804046916,0.42630270641248974,2.5094648248425457
12.47381463444428,1.3147634623500946,9.600573847804316,-0.012400886140231873,-0.0006260859315617343,-0.008053516804046916,0.42644545543679063,2.516340116124874
12.461413748304047,1.314137376418533,9.59252033100027,-0.012400886140231873,-0.0006260859315617343,-0.008053516804046916,0.4395376226229552,2.5155269890155165
12.449012862163814,1.3135112904869712,9.584466814196222,-0.012400886140231873,-0.0006260859315617343,-0.008053516804046916,0.4426357415295478,2.541985444103446
12.436611976023581,1.3128852045554096,9.576413297392175,-0.012400886140231873,-0.0006260859315617343,-0.008053516804046916,0.44000237200064135,2.5522286167357526
12.424211089883348,1.312259118623848,9.568359780588128,-0.012400886140231873,-0.0006260859315617343,-0.008053516804046916,0.43333746819096663,2.545615787436894
12.411810203743116,1.3116330326922863,9.560306263784081,-0.012400886140231873,-0.0006260859315617343,-0.008053516804046916,0.4348737009396365,2.5531703459296082
12.399409317602883,1.3110069467607246,9.552252746980034,-0.012400886140231873,-0.0006260859315617343,-0.008053516804046916,0.43469874274564974,2.5485242320328383
12.38700843146265,1.310380860829163,9.544199230175987,-0.012400886140231873,-0.0006260859315617343,-0.008053516804046916,0.4307208694909886,2.5524698505730603
12.374607545322418,1.3097547748976013,9.53614571337194,-0.012400886140231873,-0.0006260859315617343,-0.008053516804046916,0.42799318125602465,2.5567484992840823
12.362206659182185,1.3091286889660396,9.528092196567894,-0.012400886140231873,-0.0006260859315617343,-0.008053516804046916,0.4286664724252392,2.5439901070362843
12.349805773041952,1.308502603034478,9.520038679763847,-0.012400886140231873,-0.0006260859315617343,-0.008053516804046916,0.42267068140264114,2.531464440736208
12.33740488690172,1.3078765171029163,9.5119851629598,-0.012400886140231873,-0.0006260859315617343,-0.008053516804046916,0.4211797943038668,2.52122064588992
12.325004000761487,1.3072504311713546,9.503931646155753,-0.012400886140231873,-0.0006260859315617343,-0.008053516804046916,0.4230456319109089,2.5206442143232066
12.312603114621254,1.306624345239793,9.495878129351706,-0.012400886140231873,-0.0006260859315617343,-0.008053516804046916,0.42007766067443425,2.5198545405138932
12.300202228481021,1.3059982593082313,9.487824612547659,-0.012400886140231873,-0.0006260859315617343,-0.008053516804046916,0.41809065687418406,2.5173316495878972
12.287801342340789,1.3053721733766697,9.479771095743612,-0.012400886140231873,-0.0006260859315617343,-0.008053516804046916,0.4206918640277835,2.5147837220539637
12.275400456200556,1.304746087445108,9.471717578939565,-0.012400886140231873,-0.0006260859315617343,-0.008053516804046916,0.4126881600876245,2.516063029979688
12.262999570060323,1.3041200015135463,9.463664062135518,-0.012400886140231873,-0.0006260859315617343,-0.008053516804046916,0.4139704969756099,2.5152542866057503
12.25059868392009,1.3034939155819847,9.45561054533147,-0.012400886140231873,-0.0006260859315617343,-0.008053516804046916,0.40943583163354946,2.512447919199835
12.238197797779858,1.302867829650423,9.447557028527424,-0.012400886140231873,-0.0006260859315617343,-0.008053516804046916,0.40612110098819737,2.5348116510282908
12.225796911639625,1.3022417437188614,9.439503511723377,-0.012400886140231873,-0.0006260859315617343,-0.008053516804046916,0.4061579915485687,2.532272996794155
12.213396025499392,1.3016156577872997,9.43144999491933,-0.012400886140231873,-0.0006260859315617343,-0.008053516804046916,0.40937871543319193,2.541111052799087
12.20099513935916,1.300989571855738,9.423396478115283,-0.012400886140231873,-0.0006260859315617343,-0.008053516804046916,0.42460246999611173,2.539868998001537
12.188594253218927,1.3003634859241764,9.415342961311236,-0.012400886140231873,-0.0006260859315617343,-0.008053516804046916,0.4282369223010292,2.537662871741514
12.176193367078694,1.2997373999926147,9.407289444507189,-0.012400886140231873,-0.0006260859315617343,-0.008053516804046916,0.42466044505734596,2.532087305461809
12.163792480938461,1.299111314061053,9.399235927703142,-0.012400886140231873,-0.0006260859315617343,-0.008053516804046916,0.4270417453936751,2.541345354248905
12.151391594798229,1.2984852281294914,9.391182410899095,-0.012400886140231873,-0.0006260859315617343,-0.008053516804046916,0.4244285124574857,2.535248948289413
12.138990708657996,1.2978591421979297,9.383128894095048,-0.012400886140231873,-0.0006260859315617343,-0.008053516804046916,0.42626702340958533,2.5357626679171985
12.126589822517763,1.297233056266368,9.375075377291001,-0.012400886140231873,-0.0006260859315617343,-0.008053516804046916,0.4232385136691722,2.525401870268576
12.11418893637753,1.2966069703348064,9.367021860486954,-0.012400886140231873,-0.0006260859315617343,-0.008053516804046916,0.4264974021571081,2.552905318273784
12.101788050237298,1.2959808844032448,9.358968343682907,-0.012400886140231873,-0.0006260859315617343,-0.008053516804046916,0.42727788985082416,2.558134823236077
12.089387164097065,1.295354798471683,9.35091482687886,-0.012400886140231873,-0.0006260859315617343,-0.008053516804046916,0.4258344109763358,2.5548343563370866
12.076986277956832,1.2947287125401215,9.342861310074813,-0.012400886140231873,-0.0006260859315617343,-0.008053516804046916,0.42191788828043475,2.5614442830410757
12.0645853918166,1.2941026266085598,9.334807793270766,-0.012400886140231873,-0.0006260859315617343,-0.008053516804046916,0.41612399981496606,2.552917749823119
12.052184505676367,1.2934765406769981,9.326754276466719,-0.012400886140231873,-0.0006260859315617343,-0.008053516804046916,0.4197281628298747,2.5677236075697234
12.039783619536134,1.2928504547454365,9.318700759662672,-0.012400886140231873,-0.0006260859315617343,-0.008053516804046916,0.4217045763275589,2.560877853867922
12.027382733395902,1.2922243688138748,9.310647242858625,-0.012400886140231873,-0.0006260859315617343,-0.008053516804046916,0.4117190304684513,2.570480394190941
12.014981847255669,1.2915982828823132,9.302593726054578,-0.012400886140231873,-0.0006260859315617343,-0.008053516804046916,0.4046493287962273,2.5729295514571713
12.002580961115436,1.2909721969507515,9.294540209250531,-0.012400886140231873,-0.0006260859315617343,-0.008053516804046916,0.4039742664141985,2.5713563383799203
11.990180074975203,1.2903461110191898,9.286486692446484,-0.012400886140231873,-0.0006260859315617343,-0.008053516804046916,0.40306272882982086,2.5626386319057826
11.97777918883497,1.2897200250876282,9.278433175642437,-0.012400886140231873,-0.0006260859315617343,-0.008053516804046916,0.4010292229596424,2.5515541092454197
11.965378302694738,1.2890939391560665,9.27037965883839,-0.012400886140231873,-0.0006260859315617343,-0.008053516804046916,0.4028517603717616,2.5356603800120734
11.952977416554505,1.2884678532245049,9.262326142034343,-0.012400886140231873,-0.0006260859315617343,-0.008053516804046916,0.40340524911702197,2.559805148450322
11.940576530414273,1.2878417672929432,9.254272625230296,-0.012400886140231873,-0.0006260859315617343,-0.008053516804046916,0.4006320836540193,2.5461760600098686
11.92817564427404,1.2872156813613815,9.24621910842625,-0.012400886140231873,-0.0006260859315617343,-0.008053516804046916,0.3979009868884357,2.554752272916286
11.915774758133807,1.2865895954298199,9.238165591622202,-0.012400886140231873,-0.0006260859315617343,-0.008053516804046916,0.40059068762631816,2.548848933835414
11.903373871993574,1.2859635094982582,9.230112074818155,-0.012400886140231873,-0.0006260859315617343,-0.008053516804046916,0.40442264362476515,2.5468407157045005
11.890972985853342,1.2853374235666966,9.222058558014108,-0.012400886140231873,-0.0006260859315617343,-0.008053516804046916,0.40578372331876394,2.5660216598011156
11.878572099713109,1.284711337635135,9.214005041210061,-0.012400886140231873,-0.0006260859315617343,-0.008053516804046916,0.40252538841081437,2.5667928404688944
11.870798315657218,1.2806540009216427,9.140495074816208,-0.007773784055891387,-0.004057336713492126,-0.07350996639385295,0.40683396032807556,2.5586588387893183
11.863024531601328,1.2765966642081505,9.066985108422355,-0.007773784055891387,-0.004057336713492126,-0.07350996639385295,0.413366180896925,2.555952421678948
11.855250747545437,1.2725393274946584,8.993475142028501,-0.007773784055891387,-0.004057336713492126,-0.07350996639385295,0.41292370865482525,2.556179298882044
11.847476963489546,1.2684819907811662,8.919965175634648,-0.007773784055891387,-0.004057336713492126,-0.07350996639385295,0.40228511832903757,2.581199663297407
11.839703179433656,1.264424654067674,8.846455209240794,-0.007773784055891387,-0.004057336713492126,-0.07350996639385295,0.3953177394465308,2.5868428312600957
11.831929395377765,1.2603673173541818,8.77294524284694,-0.007773784055891387,-0.004057336713492126,-0.07350996639385295,0.39273726248024876,2.5919220369340996
11.824155611321874,1.2563099806406897,8.699435276453087,-0.007773784055891387,-0.004057336713492126,-0.07350996639385295,0.3874287380611517,2.6032524269388975
11.816381827265984,1.2522526439271975,8.625925310059234,-0.007773784055891387,-0.004057336713492126,-0.07350996639385295,0.38680546533153154,2.5830795494377865
11.808608043210093,1.2481953072137053,8.55241534366538,-0.007773784055891387,-0.004057336713492126,-0.07350996639385295,0.3874383685574351,2.591258387310844
11.800834259154202,1.2441379705002131,8.478905377271527,-0.007773784055891387,-0.004057336713492126,-0.07350996639385295,0.3867525767049289,2.591302661865368
11.793060475098311,1.240080633786721,8.405395410877674,-0.007773784055891387,-0.004057336713492126,-0.07350996639385295,0.3856776221320894,2.5861669306258928
11.78528669104242,1.2360232970732288,8.33188544448382,-0.007773784055891387,-0.004057336713492126,-0.07350996639385295,0.38605706725406413,2.5647932476230166
11.77751290698653,1.2319659603597366,8.258375478089967,-0.007773784055891387,-0.004057336713492126,-0.07350996639385295,0.3787605328365777,2.5746482653486464
11.76973912293064,1.2279086236462444,8.184865511696113,-0.007773784055891387,-0.004057336713492126,-0.07350996639385295,0.3840920667921471,2.5763277265561544
11.761965338874749,1.2238512869327522,8.11135554530226,-0.007773784055891387,-0.004057336713492126,-0.07350996639385295,0.3759040366329463,2.551251609910152
11.754191554818858,1.21979395021926,8.037845578908406,-0.007773784055891387,-0.004057336713492126,-0.07350996639385295,0.37156058528482755,2.5572000084807867
11.746417770762967,1.215736613505768,7.964335612514554,-0.007773784055891387,-0.004057336713492126,-0.07350996639385295,0.36688717524609993,2.548462889617158
11.738643986707077,1.2116792767922757,7.890825646120701,-0.007773784055891387,-0.004057336713492126,-0.07350996639385295,0.36832429192475485,2.5569514387998704
11.730870202651186,1.2076219400787835,7.817315679726849,-0.007773784055891387,-0.004057336713492126,-0.07350996639385295,0.36792550336074037,2.5548892836758044
11.723096418595295,1.2035646033652914,7.743805713332996,-0.007773784055891387,-0.004057336713492126,-0.07350996639385295,0.361010311230437,2.5418998821486167
11.715322634539405,1.1995072666517992,7.670295746939144,-0.007773784055891387,-0.004057336713492126,-0.07350996639385295,0.3550480178441871,2.5234892179071573
11.707548850483514,1.195449929938307,7.596785780545291,-0.007773784055891387,-0.004057336713492126,-0.07350996639385295,0.3538151903890151,2.517236651913061
11.699775066427623,1.1913925932248148,7.523275814151439,-0.007773784055891387,-0.004057336713492126,-0.07350996639385295,0.34688446460134104,2.5177065243363734
11.692001282371733,1.1873352565113227,7.449765847757586,-0.007773784055891387,-0.004057336713492126,-0.07350996639385295,0.35186775303345985,2.5001673137970806
11.684227498315842,1.1832779197978305,7.376255881363734,-0.007773784055891387,-0.004057336713492126,-0.07350996639385295,0.34750611509490686,2.5019012134274394
11.676453714259951,1.1792205830843383,7.302745914969881,-0.007773784055891387,-0.004057336713492126,-0.07350996639385295,0.3425005089086758,2.484897979993133
11.66867993020406,1.1751632463708461,7.2292359485760285,-0.007773784055891387,-0.004057336713492126,-0.07350996639385295,0.33845974090102193,2.4820783273347544
11.66090614614817,1.171105909657354,7.155725982182176,-0.007773784055891387,-0.004057336713492126,-0.07350996639385295,0.33706758114978586,2.483140321904229
11.653132362092279,1.1670485729438618,7.082216015788323,-0.007773784055891387,-0.004057336713492126,-0.07350996639385295,0.3315287095035954,2.507391006444298
11.645358578036388,1.1629912362303696,7.008706049394471,-0.007773784055891387,-0.004057336713492126,-0.07350996639385295,0.3356205897791478,2.4984935943976727
11.637584793980498,1.1589338995168774,6.935196083000618,-0.007773784055891387,-0.004057336713492126,-0.07350996639385295,0.341104201492825,2.5016605622033636
