theta,phi,z,dtheta,dphi,dz,ecg,eda
3.460765288681906,0.6539156703977493,3.618142650216499,0.0,0.0,0.0,0.3223111092200351,0.9425748034291819
3.4658006449124064,0.6569847826002249,3.6296912550390803,0.005035356230500615,0.0030691122024755764,0.011548604822581174,0.3223111092200351,0.9425748034291819
3.470836001142907,0.6600538948027004,3.6412398598616615,0.005035356230500615,0.0030691122024755764,0.011548604822581174,0.3223111092200351,0.9425748034291819
3.4758713573734075,0.6631230070051759,3.652788464684243,0.005035356230500615,0.0030691122024755764,0.011548604822581174,0.3223111092200351,0.9425748034291819
3.480906713603908,0.6661921192076514,3.664337069506824,0.005035356230500615,0.0030691122024755764,0.011548604822581174,0.3223111092200351,0.9425748034291819
3.4859420698344086,0.6692612314101269,3.6758856743294053,0.005035356230500615,0.0030691122024755764,0.011548604822581174,0.3462546934193461,0.9425748034291819
3.490977426064909,0.6723303436126025,3.6874342791519865,0.005035356230500615,0.0030691122024755764,0.011548604822581174,0.3462546934193461,0.9425748034291819
3.4960127822954097,0.675399455815078,3.6989828839745678,0.005035356230500615,0.0030691122024755764,0.011548604822581174,0.3462546934193461,0.9425748034291819
3.5010481385259102,0.6784685680175535,3.710531488797149,0.005035356230500615,0.0030691122024755764,0.011548604822581174,0.3462546934193461,0.9425748034291819
3.506083494756411,0.681537680220029,3.7220800936197302,0.005035356230500615,0.0030691122024755764,0.011548604822581174,0.3462546934193461,0.9425748034291819
3.5111188509869113,0.6846067924225046,3.7336286984423115,0.005035356230500615,0.0030691122024755764,0.011548604822581174,0.34215514906250577,0.9425748034291819
3.516154207217412,0.6876759046249801,3.7451773032648927,0.005035356230500615,0.0030691122024755764,0.011548604822581174,0.34215514906250577,0.9425748034291819
3.5211895634479125,0.6907450168274556,3.756725908087474,0.005035356230500615,0.0030691122024755764,0.011548604822581174,0.34215514906250577,0.9425748034291819
3.526224919678413,0.6938141290299311,3.768274512910055,0.005035356230500615,0.0030691122024755764,0.011548604822581174,0.34215514906250577,0.9425748034291819
3.5312602759089136,0.6968832412324066,3.7798231177326365,0.005035356230500615,0.0030691122024755764,0.011548604822581174,0.34215514906250577,0.9425748034291819
3.536295632139414,0.6999523534348822,3.7913717225552177,0.005035356230500615,0.0030691122024755764,0.011548604822581174,0.34215514906250577,0.9425748034291819
3.5413309883699147,0.7030214656373577,3.802920327377799,0.005035356230500615,0.0030691122024755764,0.011548604822581174,0.34215514906250577,0.9425748034291819
3.546366344600415,0.7060905778398332,3.81446893220038,0.005035356230500615,0.0030691122024755764,0.011548604822581174,0.34215514906250577,0.9425748034291819
3.5514017008309158,0.7091596900423087,3.8260175370229614,0.005035356230500615,0.0030691122024755764,0.011548604822581174,0.34076881869508,0.9425748034291819
3.5564370570614163,0.7122288022447842,3.8375661418455427,0.005035356230500615,0.0030691122024755764,0.011548604822581174,0.33476385405064574,0.9425748034291819
3.561472413291917,0.7152979144472598,3.849114746668124,0.005035356230500615,0.0030691122024755764,0.011548604822581174,0.33476385405064574,0.9425748034291819
3.5665077695224174,0.7183670266497353,3.860663351490705,0.005035356230500615,0.0030691122024755764,0.011548604822581174,0.33476385405064574,0.9425748034291819
3.5676255670802175,0.7127456843081788,3.9295944526912763,0.001117797557800115,-0.00562134234155653,0.06893110120057112,0.33476385405064574,0.9425748034291819
3.5687433646380176,0.7071243419666222,3.9985255538918474,0.001117797557800115,-0.00562134234155653,0.06893110120057112,0.33476385405064574,0.9425748034291819
3.5873152449478307,0.7129470007027309,4.02276996138905,0.018571880309813087,0.005822658736108628,0.02424440749720291,0.33476385405064574,0.9425748034291819
3.605887125257644,0.7187696594388395,4.047014368886253,0.018571880309813087,0.005822658736108628,0.02424440749720291,0.33476385405064574,0.9425748034291819
3.624459005567457,0.7245923181749482,4.071258776383456,0.018571880309813087,0.005822658736108628,0.02424440749720291,0.33476385405064574,0.9425748034291819
3.64303088587727,0.7304149769110568,4.095503183880658,0.018571880309813087,0.005822658736108628,0.02424440749720291,0.33476385405064574,0.9425748034291819
3.6616027661870834,0.7362376356471655,4.119747591377861,0.018571880309813087,0.005822658736108628,0.02424440749720291,0.33476385405064574,0.9425748034291819
3.6801746464968965,0.7420602943832741,4.143991998875063,0.018571880309813087,0.005822658736108628,0.02424440749720291,0.33476385405064574,0.9425748034291819
3.6987465268067097,0.7478829531193828,4.168236406372266,0.018571880309813087,0.005822658736108628,0.02424440749720291,0.33132930222667795,0.9425748034291819
3.717318407116523,0.7537056118554915,4.1924808138694685,0.018571880309813087,0.005822658736108628,0.02424440749720291,0.33366976733776327,0.9425748034291819
3.735890287426336,0.7595282705916001,4.216725221366671,0.018571880309813087,0.005822658736108628,0.02424440749720291,0.3304333553000492,0.9425748034291819
3.754462167736149,0.7653509293277088,4.240969628863874,0.018571880309813087,0.005822658736108628,0.02424440749720291,0.3270740862194162,0.9425748034291819
3.7730340480459623,0.7711735880638174,4.265214036361076,0.018571880309813087,0.005822658736108628,0.02424440749720291,0.3210113905873543,0.9425748034291819
3.7916059283557755,0.7769962467999261,4.289458443858279,0.018571880309813087,0.005822658736108628,0.02424440749720291,0.3286409967931396,0.9425748034291819
3.8101778086655886,0.7828189055360347,4.313702851355481,0.018571880309813087,0.005822658736108628,0.02424440749720291,0.3386561219844142,0.9425748034291819
3.828749688975402,0.7886415642721434,4.337947258852684,0.018571880309813087,0.005822658736108628,0.02424440749720291,0.33961818713200864,0.9425748034291819
3.847321569285215,0.794464223008252,4.3621916663498865,0.018571880309813087,0.005822658736108628,0.02424440749720291,0.33557838034211335,0.9425748034291819
3.865893449595028,0.8002868817443607,4.386436073847089,0.018571880309813087,0.005822658736108628,0.02424440749720291,0.3346853604148284,0.9425748034291819
3.8844653299048413,0.8061095404804693,4.410680481344292,0.018571880309813087,0.005822658736108628,0.02424440749720291,0.3296511544748298,0.9425748034291819
3.9030372102146544,0.811932199216578,4.434924888841494,0.018571880309813087,0.005822658736108628,0.02424440749720291,0.3291882331869544,0.9425748034291819
3.9216090905244676,0.8177548579526867,4.459169296338697,0.018571880309813087,0.005822658736108628,0.02424440749720291,0.3253460868571531,0.9425748034291819
3.9401809708342808,0.8235775166887953,4.483413703835899,0.018571880309813087,0.005822658736108628,0.02424440749720291,0.31603417425934827,0.9425748034291819
3.958752851144094,0.829400175424904,4.507658111333102,0.018571880309813087,0.005822658736108628,0.02424440749720291,0.31847874371231105,0.9425748034291819
3.977324731453907,0.8352228341610126,4.531902518830305,0.018571880309813087,0.005822658736108628,0.02424440749720291,0.31878828859390457,0.9425748034291819
3.9958966117637202,0.8410454928971213,4.556146926327507,0.018571880309813087,0.005822658736108628,0.02424440749720291,0.3234545267455262,0.9425748034291819
4.014468492073533,0.8468681516332299,4.58039133382471,0.018571880309813087,0.005822658736108628,0.02424440749720291,0.31917318861175586,0.9425748034291819
4.033040372383346,0.8526908103693386,4.604635741321912,0.018571880309813087,0.005822658736108628,0.02424440749720291,0.31865681845050176,0.9425748034291819
4.051612252693159,0.8585134691054472,4.628880148819115,0.018571880309813087,0.005822658736108628,0.02424440749720291,0.32788908540903106,0.9425748034291819
4.070184133002972,0.8643361278415559,4.6531245563163175,0.018571880309813087,0.005822658736108628,0.02424440749720291,0.32336337403849685,0.9425748034291819
4.088756013312786,0.8701587865776645,4.67736896381352,0.018571880309813087,0.005822658736108628,0.02424440749720291,0.3334937447783559,0.9425748034291819
4.107327893622599,0.8759814453137732,4.701613371310723,0.018571880309813087,0.005822658736108628,0.02424440749720291,0.337894377732483,0.9425748034291819
4.125899773932412,0.8818041040498819,4.725857778807925,0.018571880309813087,0.005822658736108628,0.02424440749720291,0.33619328044293323,0.9425748034291819
4.144471654242225,0.8876267627859905,4.750102186305128,0.018571880309813087,0.005822658736108628,0.02424440749720291,0.32768072484318356,0.9425748034291819
4.163043534552038,0.8934494215220992,4.77434659380233,0.018571880309813087,0.005822658736108628,0.02424440749720291,0.33161916211647363,0.9425748034291819
4.181615414861851,0.8992720802582078,4.798591001299533,0.018571880309813087,0.005822658736108628,0.02424440749720291,0.32748869612503234,0.9425748034291819
4.200187295171665,0.9050947389943165,4.822835408796736,0.018571880309813087,0.005822658736108628,0.02424440749720291,0.3274472447411416,0.9425748034291819
4.218759175481478,0.9109173977304251,4.847079816293938,0.018571880309813087,0.005822658736108628,0.02424440749720291,0.3285077772702555,0.9425748034291819
4.237331055791291,0.9167400564665338,4.871324223791141,0.018571880309813087,0.005822658736108628,0.02424440749720291,0.3270044068600532,0.9425748034291819
4.255902936101104,0.9225627152026424,4.895568631288343,0.018571880309813087,0.005822658736108628,0.02424440749720291,0.33381504333453027,0.9425748034291819
4.274474816410917,0.9283853739387511,4.919813038785546,0.018571880309813087,0.005822658736108628,0.02424440749720291,0.33193239654376394,0.9425748034291819
4.29304669672073,0.9342080326748597,4.9440574462827485,0.018571880309813087,0.005822658736108628,0.02424440749720291,0.33143258182669066,0.9425748034291819
4.3116185770305435,0.9400306914109684,4.968301853779951,0.018571880309813087,0.005822658736108628,0.02424440749720291,0.3294578436047676,0.9425748034291819
4.330190457340357,0.945853350147077,4.992546261277154,0.018571880309813087,0.005822658736108628,0.02424440749720291,0.33709813662086185,0.9425748034291819
4.34876233765017,0.9516760088831857,5.016790668774356,0.018571880309813087,0.005822658736108628,0.02424440749720291,0.32942408644921933,0.9425748034291819
4.367334217959983,0.9574986676192944,5.041035076271559,0.018571880309813087,0.005822658736108628,0.02424440749720291,0.33232623914127246,0.9470578915688194
4.385906098269796,0.963321326355403,5.065279483768761,0.018571880309813087,0.005822658736108628,0.02424440749720291,0.32480984278750835,0.9459227736648859
4.4321148262680445,0.949120350280797,5.058836468444291,0.046208727998248635,-0.01420097607460607,-0.006443015324470993,0.3262411938362846,0.9594548898065864
4.478323554266293,0.934919374206191,5.05239345311982,0.046208727998248635,-0.01420097607460607,-0.006443015324470993,0.33037358354418744,0.9508010476891371
4.524532282264541,0.920718398131585,5.04595043779535,0.046208727998248635,-0.01420097607460607,-0.006443015324470993,0.3276564773481162,0.9566676203211334
4.57074101026279,0.9065174220569789,5.039507422470879,0.046208727998248635,-0.01420097607460607,-0.006443015324470993,0.32636735269026773,0.9511369371383604
4.616949738261038,0.8923164459823729,5.033064407146409,0.046208727998248635,-0.01420097607460607,-0.006443015324470993,0.3245180221034637,0.9686719288199422
4.663158466259286,0.8781154699077669,5.026621391821938,0.046208727998248635,-0.01420097607460607,-0.006443015324470993,0.3200478862117804,0.9673771051886387
4.709367194257535,0.8639144938331609,5.0201783764974675,0.046208727998248635,-0.01420097607460607,-0.006443015324470993,0.3199155725246584,0.9601624030552043
4.755575922255783,0.8497135177585549,5.013735361172997,0.046208727998248635,-0.01420097607460607,-0.006443015324470993,0.3230340090770802,0.9758337913616574
4.801784650254032,0.8355125416839488,5.007292345848526,0.046208727998248635,-0.01420097607460607,-0.006443015324470993,0.3214090257882067,0.9676050238081989
4.84799337825228,0.8213115656093428,5.000849330524056,0.046208727998248635,-0.01420097607460607,-0.006443015324470993,0.32274724656218545,0.9770924375737511
4.894202106250528,0.8071105895347368,4.994406315199585,0.046208727998248635,-0.01420097607460607,-0.006443015324470993,0.32353316837925467,0.9757108702431542
4.940410834248777,0.7929096134601308,4.987963299875115,0.046208727998248635,-0.01420097607460607,-0.006443015324470993,0.3203022884683239,0.9762515863708694
4.986619562247025,0.7787086373855248,4.981520284550644,0.046208727998248635,-0.01420097607460607,-0.006443015324470993,0.32577951359973856,0.9758496387375212
5.0328282902452735,0.7645076613109187,4.9750772692261735,0.046208727998248635,-0.01420097607460607,-0.006443015324470993,0.32023449970563084,0.9784986656916628
5.079037018243522,0.7503066852363127,4.968634253901703,0.046208727998248635,-0.01420097607460607,-0.006443015324470993,0.3209744240960088,0.9992146954528155
5.12524574624177,0.7361057091617067,4.962191238577232,0.046208727998248635,-0.01420097607460607,-0.006443015324470993,0.32061093740549407,1.0009895978377954
5.171454474240019,0.7219047330871007,4.955748223252762,0.046208727998248635,-0.01420097607460607,-0.006443015324470993,0.3156889871711574,1.000847838731096
5.217663202238267,0.7077037570124947,4.949305207928291,0.046208727998248635,-0.01420097607460607,-0.006443015324470993,0.3227825188583162,0.9935153425275668
5.263871930236515,0.6935027809378886,4.942862192603821,0.046208727998248635,-0.01420097607460607,-0.006443015324470993,0.3203509768071359,0.9929937355078425
5.310080658234764,0.6793018048632826,4.93641917727935,0.046208727998248635,-0.01420097607460607,-0.006443015324470993,0.32522309791121895,0.994977200135266
5.356289386233012,0.6651008287886766,4.92997616195488,0.046208727998248635,-0.01420097607460607,-0.006443015324470993,0.3271462863504974,0.986141970271527
5.4024981142312605,0.6508998527140706,4.923533146630409,0.046208727998248635,-0.01420097607460607,-0.006443015324470993,0.33358477161990396,0.995342560991714
5.448706842229509,0.6366988766394646,4.9170901313059385,0.046208727998248635,-0.01420097607460607,-0.006443015324470993,0.33537378405630935,0.9975636592638516
5.494915570227757,0.6224979005648585,4.910647115981468,0.046208727998248635,-0.01420097607460607,-0.006443015324470993,0.33781599365326354,0.979865449140202
5.541124298226006,0.6082969244902525,4.904204100656997,0.046208727998248635,-0.01420097607460607,-0.006443015324470993,0.3313737308233411,0.9665309266035697
5.587333026224254,0.5940959484156465,4.897761085332527,0.046208727998248635,-0.01420097607460607,-0.006443015324470993,0.32789970610250607,0.9594622283611458
5.633541754222502,0.5798949723410405,4.891318070008056,0.046208727998248635,-0.01420097607460607,-0.006443015324470993,0.325646746312821,0.9682485614613208
5.679750482220751,0.5656939962664345,4.884875054683586,0.046208727998248635,-0.01420097607460607,-0.006443015324470993,0.32353422198725473,0.9826765216366342
5.725959210218999,0.5514930201918284,4.878432039359115,0.046208727998248635,-0.01420097607460607,-0.006443015324470993,0.32366441961119674,0.9827765727548959
5.7721679382172475,0.5372920441172224,4.871989024034645,0.046208727998248635,-0.01420097607460607,-0.006443015324470993,0.32576881299745775,0.9850948264914899
5.818376666215496,0.5230910680426164,4.865546008710174,0.046208727998248635,-0.01420097607460607,-0.006443015324470993,0.32550873215682485,0.987557546606555
5.864585394213744,0.5088900919680104,4.8591029933857035,0.046208727998248635,-0.01420097607460607,-0.006443015324470993,0.31840715894350147,0.9925508788632044
5.910794122211993,0.4946891158934043,4.852659978061233,0.046208727998248635,-0.01420097607460607,-0.006443015324470993,0.3132217973163113,0.9998063175240708
5.957002850210241,0.48048813981879823,4.846216962736762,0.046208727998248635,-0.01420097607460607,-0.006443015324470993,0.3152427337234041,0.9877499033359167
6.003211578208489,0.46628716374419216,4.839773947412292,0.046208727998248635,-0.01420097607460607,-0.006443015324470993,0.31215221188012704,0.9994155612517887
6.049420306206738,0.4520861876695861,4.833330932087821,0.046208727998248635,-0.01420097607460607,-0.006443015324470993,0.30641672173001533,0.9969403765069745
6.095629034204986,0.43788521159498,4.826887916763351,0.046208727998248635,-0.01420097607460607,-0.006443015324470993,0.2968672223947052,1.0066623627577636
6.1418377622032345,0.42368423552037393,4.82044490143888,0.046208727998248635,-0.01420097607460607,-0.006443015324470993,0.30599182780990636,1.0014726858406973
6.188046490201483,0.40948325944576786,4.81400188611441,0.046208727998248635,-0.01420097607460607,-0.006443015324470993,0.30407556905603483,0.9903224022562515
6.234255218199731,0.3952822833711618,4.807558870789939,0.046208727998248635,-0.01420097607460607,-0.006443015324470993,0.3132614276039327,0.9811010376232006
6.28046394619798,0.3810813072965557,4.8011158554654685,0.046208727998248635,-0.01420097607460607,-0.006443015324470993,0.3194713675803049,0.9769090019850926
6.326672674196228,0.36688033122194963,4.794672840140998,0.046208727998248635,-0.01420097607460607,-0.006443015324470993,0.31614228065938377,0.9754645240441412
6.372881402194476,0.35267935514734355,4.788229824816527,0.046208727998248635,-0.01420097607460607,-0.006443015324470993,0.32165744490248366,0.9778154317665674
6.419090130192725,0.3384783790727375,4.781786809492057,0.046208727998248635,-0.01420097607460607,-0.006443015324470993,0.3192833282034834,0.9797537899096493
6.465298858190973,0.3242774029981314,4.775343794167586,0.046208727998248635,-0.01420097607460607,-0.006443015324470993,0.3147911310308982,0.9708663395085875
6.5115075861892215,0.31007642692352533,4.768900778843116,0.046208727998248635,-0.01420097607460607,-0.006443015324470993,0.29900848407552066,0.9635928282334701
6.55771631418747,0.29587545084891925,4.762457763518645,0.046208727998248635,-0.01420097607460607,-0.006443015324470993,0.2939181634008748,0.9614145153269055
6.603925042185718,0.2816744747743132,4.756014748194175,0.046208727998248635,-0.01420097607460607,-0.006443015324470993,0.302541714147088,0.9519819643466689
6.650133770183967,0.2674734986997071,4.749571732869704,0.046208727998248635,-0.01420097607460607,-0.006443015324470993,0.3024949468551383,0.9645078158848845
6.696342498182215,0.253272522625101,4.7431287175452335,0.046208727998248635,-0.01420097607460607,-0.006443015324470993,0.30500007684351094,0.9559286985297663
6.742551226180463,0.23907154655049495,4.736685702220763,0.046208727998248635,-0.01420097607460607,-0.006443015324470993,0.3012183145271574,0.9655272220058179
6.788759954178712,0.22487057047588888,4.730242686896292,0.046208727998248635,-0.01420097607460607,-0.006443015324470993,0.29854213539507557,0.9855393805731474
6.83496868217696,0.2106695944012828,4.723799671571822,0.046208727998248635,-0.01420097607460607,-0.006443015324470993,0.29215979935258063,1.0037598003843806
6.881177410175209,0.19646861832667672,4.717356656247351,0.046208727998248635,-0.01420097607460607,-0.006443015324470993,0.2968819143546214,1.000550152087386
6.927386138173457,0.18226764225207065,4.710913640922881,0.046208727998248635,-0.01420097607460607,-0.006443015324470993,0.3027402401093872,1.0018335147781594
6.932068926246497,0.19574895559720834,4.754962494290072,0.004682788073040615,0.01348131334513768,0.04404885336719156,0.29618627665276404,1.0047524069075622
6.936751714319538,0.20923026894234603,4.799011347657263,0.004682788073040615,0.01348131334513768,0.04404885336719156,0.2972704583146619,1.01229063963506
6.941434502392578,0.22271158228748372,4.843060201024454,0.004682788073040615,0.01348131334513768,0.04404885336719156,0.29510053005664894,1.0081284667319597
6.946117290465619,0.2361928956326214,4.887109054391646,0.004682788073040615,0.01348131334513768,0.04404885336719156,0.2917392091916958,1.0031869215014853
6.950800078538659,0.2496742089777591,4.931157907758837,0.004682788073040615,0.01348131334513768,0.04404885336719156,0.2898882552477889,1.022556185759415
6.9554828666117,0.2631555223228968,4.975206761126028,0.004682788073040615,0.01348131334513768,0.04404885336719156,0.27856547120273273,1.0200734204276813
6.96016565468474,0.2766368356680345,5.019255614493219,0.004682788073040615,0.01348131334513768,0.04404885336719156,0.27135155420052776,1.0198809978092107
6.964848442757781,0.2901181490131722,5.06330446786041,0.004682788073040615,0.01348131334513768,0.04404885336719156,0.27295871971405883,1.0196516385137628
6.969531230830821,0.30359946235830987,5.107353321227602,0.004682788073040615,0.01348131334513768,0.04404885336719156,0.2776120118710946,1.0305352060517448
6.9742140189038615,0.31708077570344756,5.151402174594793,0.004682788073040615,0.01348131334513768,0.04404885336719156,0.2751648288672395,1.0515500092051604
6.978896806976902,0.33056208904858525,5.195451027961984,0.004682788073040615,0.01348131334513768,0.04404885336719156,0.2843445384316463,1.0413399616004468
6.983579595049942,0.34404340239372294,5.239499881329175,0.004682788073040615,0.01348131334513768,0.04404885336719156,0.2877504196647419,1.0510014238727035
6.988262383122983,0.35752471573886063,5.2835487346963665,0.004682788073040615,0.01348131334513768,0.04404885336719156,0.28257898020175154,1.0328499732894412
6.992945171196023,0.3710060290839983,5.327597588063558,0.004682788073040615,0.01348131334513768,0.04404885336719156,0.2806188540186484,1.0434241640687467
6.997627959269064,0.384487342429136,5.371646441430749,0.004682788073040615,0.01348131334513768,0.04404885336719156,0.2775383563228247,1.0387557913352286
7.002310747342104,0.3979686557742737,5.41569529479794,0.004682788073040615,0.01348131334513768,0.04404885336719156,0.2759085103909691,1.034917191864551
7.006993535415145,0.4114499691194114,5.459744148165131,0.004682788073040615,0.01348131334513768,0.04404885336719156,0.2694311960362262,1.038325541537188
7.011676323488185,0.4249312824645491,5.503793001532323,0.004682788073040615,0.01348131334513768,0.04404885336719156,0.2619227215774617,1.0261715631928219
7.016359111561226,0.4384125958096868,5.547841854899514,0.004682788073040615,0.01348131334513768,0.04404885336719156,0.26996219204258215,1.0357435467516072
7.021041899634266,0.45189390915482447,5.591890708266705,0.004682788073040615,0.01348131334513768,0.04404885336719156,0.2721418247507122,1.0493073462675317
7.0257246877073065,0.46537522249996216,5.635939561633896,0.004682788073040615,0.01348131334513768,0.04404885336719156,0.2699073092731746,1.0493764955628717
7.030407475780347,0.47885653584509985,5.6799884150010875,0.004682788073040615,0.01348131334513768,0.04404885336719156,0.2723962306540821,1.055419578257346
7.035090263853387,0.49233784919023754,5.724037268368279,0.004682788073040615,0.01348131334513768,0.04404885336719156,0.2803762414645758,1.049903739970482
7.039773051926428,0.5058191625353752,5.76808612173547,0.004682788073040615,0.01348131334513768,0.04404885336719156,0.2794564544224405,1.060279571674252
7.044455839999468,0.5193004758805129,5.812134975102661,0.004682788073040615,0.01348131334513768,0.04404885336719156,0.2821731201795058,1.0764596313161807
7.049138628072509,0.5327817892256506,5.856183828469852,0.004682788073040615,0.01348131334513768,0.04404885336719156,0.2830254896314352,1.0940937112632299
7.053821416145549,0.5462631025707883,5.900232681837044,0.004682788073040615,0.01348131334513768,0.04404885336719156,0.2832966186316037,1.1014469068254733
7.05850420421859,0.5597444159159259,5.944281535204235,0.004682788073040615,0.01348131334513768,0.04404885336719156,0.2750795804505712,1.1100561719841897
7.06318699229163,0.5732257292610636,5.988330388571426,0.004682788073040615,0.01348131334513768,0.04404885336719156,0.2743588156557409,1.1134778879590062
7.067869780364671,0.5867070426062013,6.032379241938617,0.004682788073040615,0.01348131334513768,0.04404885336719156,0.28059480380322965,1.1166553593141648
7.072552568437711,0.600188355951339,6.0764280953058085,0.004682788073040615,0.01348131334513768,0.04404885336719156,0.2854403946022378,1.1290997661479931
7.0772353565107515,0.6136696692964767,6.120476948673,0.004682788073040615,0.01348131334513768,0.04404885336719156,0.2833670091738199,1.1232123661221296
7.081918144583792,0.6271509826416144,6.164525802040191,0.004682788073040615,0.01348131334513768,0.04404885336719156,0.27767061007333327,1.112190428975771
7.086600932656832,0.6406322959867521,6.208574655407382,0.004682788073040615,0.01348131334513768,0.04404885336719156,0.2733030275969167,1.1139949428032623
7.087293682519096,0.6373851553156875,6.24561270335999,0.000692749862263506,-0.003247140671064628,0.037038047952608455,0.2729251998873055,1.1243129593983276
7.08798643238136,0.6341380146446229,6.282650751312598,0.000692749862263506,-0.003247140671064628,0.037038047952608455,0.27103547669299927,1.1000082374899158
7.088679182243624,0.6308908739735584,6.319688799265206,0.000692749862263506,-0.003247140671064628,0.037038047952608455,0.2712609471997335,1.1097238862766636
7.0893719321058875,0.6276437333024938,6.356726847217814,0.000692749862263506,-0.003247140671064628,0.037038047952608455,0.27628262509695684,1.1155714768656304
7.090064681968151,0.6243965926314292,6.393764895170422,0.000692749862263506,-0.003247140671064628,0.037038047952608455,0.2695988736882198,1.1022746844054343
7.090757431830415,0.6211494519603646,6.43080294312303,0.000692749862263506,-0.003247140671064628,0.037038047952608455,0.26532773151615235,1.1006790075683388
7.091450181692679,0.6179023112893001,6.467840991075638,0.000692749862263506,-0.003247140671064628,0.037038047952608455,0.2601745056598553,1.1114299597034174
7.0921429315549425,0.6146551706182355,6.504879039028246,0.000692749862263506,-0.003247140671064628,0.037038047952608455,0.25697194918638416,1.126957726529029
7.092835681417206,0.6114080299471709,6.541917086980854,0.000692749862263506,-0.003247140671064628,0.037038047952608455,0.2560017440111069,1.127773042282547
7.09352843127947,0.6081608892761063,6.578955134933462,0.000692749862263506,-0.003247140671064628,0.037038047952608455,0.25308867221106573,1.1393124413456128
7.094221181141734,0.6049137486050418,6.61599318288607,0.000692749862263506,-0.003247140671064628,0.037038047952608455,0.25182213383701424,1.151015243221671
7.0949139310039975,0.6016666079339772,6.653031230838678,0.000692749862263506,-0.003247140671064628,0.037038047952608455,0.2435539487318198,1.1449013672962622
7.095606680866261,0.5984194672629126,6.690069278791286,0.000692749862263506,-0.003247140671064628,0.037038047952608455,0.24446055104302122,1.150394712637733
7.096299430728525,0.595172326591848,6.727107326743894,0.000692749862263506,-0.003247140671064628,0.037038047952608455,0.24336867569948123,1.160447547692132
7.096992180590789,0.5919251859207835,6.764145374696502,0.000692749862263506,-0.003247140671064628,0.037038047952608455,0.23855720665108912,1.1557432544493869
7.0976849304530525,0.5886780452497189,6.80118342264911,0.000692749862263506,-0.003247140671064628,0.037038047952608455,0.2333440258527311,1.1498819910559193
7.098377680315316,0.5854309045786543,6.838221470601718,0.000692749862263506,-0.003247140671064628,0.037038047952608455,0.2336247481128716,1.1348000248414203
7.09907043017758,0.5821837639075897,6.875259518554326,0.000692749862263506,-0.003247140671064628,0.037038047952608455,0.23747637631870766,1.1354220041085175
7.099763180039844,0.5789366232365252,6.912297566506934,0.000692749862263506,-0.003247140671064628,0.037038047952608455,0.23672566875139445,1.1426316036303201
7.1004559299021075,0.5756894825654606,6.949335614459542,0.000692749862263506,-0.003247140671064628,0.037038047952608455,0.23861462482569298,1.1422614015547006
7.101148679764371,0.572442341894396,6.98637366241215,0.000692749862263506,-0.003247140671064628,0.037038047952608455,0.24371627135148458,1.136543942042994
7.101841429626635,0.5691952012233314,7.023411710364758,0.000692749862263506,-0.003247140671064628,0.037038047952608455,0.24719059856129438,1.1246718468050045
7.102534179488899,0.5659480605522669,7.060449758317366,0.000692749862263506,-0.003247140671064628,0.037038047952608455,0.2439615640149037,1.1338173860289409
7.1032269293511625,0.5627009198812023,7.097487806269974,0.000692749862263506,-0.003247140671064628,0.037038047952608455,0.24063304708221622,1.1301770368942403
7.103919679213426,0.5594537792101377,7.1345258542225825,0.000692749862263506,-0.003247140671064628,0.037038047952608455,0.24437500325179987,1.125241850701989
7.10461242907569,0.5562066385390732,7.1715639021751905,0.000692749862263506,-0.003247140671064628,0.037038047952608455,0.24075597388928982,1.1271378966091585
7.105305178937954,0.5529594978680086,7.2086019501277985,0.000692749862263506,-0.003247140671064628,0.037038047952608455,0.2311394153522925,1.1219323145502853
7.1059979288002175,0.549712357196944,7.2456399980804065,0.000692749862263506,-0.003247140671064628,0.037038047952608455,0.23048910231015116,1.114278773693988
7.106690678662481,0.5464652165258794,7.2826780460330145,0.000692749862263506,-0.003247140671064628,0.037038047952608455,0.23244734160352754,1.1051168078364257
7.107383428524745,0.5432180758548149,7.3197160939856225,0.000692749862263506,-0.003247140671064628,0.037038047952608455,0.22891897385733073,1.108414766478483
7.108076178387009,0.5399709351837503,7.3567541419382305,0.000692749862263506,-0.003247140671064628,0.037038047952608455,0.22068952888721977,1.0965508674888287
7.1087689282492725,0.5367237945126857,7.3937921898908385,0.000692749862263506,-0.003247140671064628,0.037038047952608455,0.21545714182462375,1.110492792524969
7.109461678111536,0.5334766538416211,7.4308302378434465,0.000692749862263506,-0.003247140671064628,0.037038047952608455,0.21070357889880778,1.1146409475062802
7.1101544279738,0.5302295131705566,7.4678682857960546,0.000692749862263506,-0.003247140671064628,0.037038047952608455,0.2040089865582104,1.1184674961923973
7.110847177836064,0.526982372499492,7.504906333748663,0.000692749862263506,-0.003247140671064628,0.037038047952608455,0.1996382964677993,1.1262591521060485
7.1115399276983275,0.5237352318284274,7.541944381701271,0.000692749862263506,-0.003247140671064628,0.037038047952608455,0.1944173303267332,1.12479344428085
7.112232677560591,0.5204880911573628,7.578982429653879,0.000692749862263506,-0.003247140671064628,0.037038047952608455,0.19768216461386412,1.1221467239915575
7.112925427422855,0.5172409504862983,7.616020477606487,0.000692749862263506,-0.003247140671064628,0.037038047952608455,0.19591022448216153,1.1161249261555697
7.113618177285119,0.5139938098152337,7.653058525559095,0.000692749862263506,-0.003247140671064628,0.037038047952608455,0.19552173146906143,1.1123151150879884
7.114310927147383,0.5107466691441691,7.690096573511703,0.000692749862263506,-0.003247140671064628,0.037038047952608455,0.1870561356591737,1.1108029453384836
7.115003677009646,0.5074995284731045,7.727134621464311,0.000692749862263506,-0.003247140671064628,0.037038047952608455,0.1828172865257168,1.0990113894158369
7.11569642687191,0.50425238780204,7.764172669416919,0.000692749862263506,-0.003247140671064628,0.037038047952608455,0.18586585424533011,1.1091007876578267
7.116389176734174,0.5010052471309754,7.801210717369527,0.000692749862263506,-0.003247140671064628,0.037038047952608455,0.18786885583203644,1.0924409260903436
7.117081926596438,0.49775810645991075,7.838248765322135,0.000692749862263506,-0.003247140671064628,0.037038047952608455,0.19120787372459794,1.082884265309716
7.117774676458701,0.4945109657888461,7.875286813274743,0.000692749862263506,-0.003247140671064628,0.037038047952608455,0.18869022291353774,1.0767571170960724
7.118467426320965,0.4912638251177815,7.912324861227351,0.000692749862263506,-0.003247140671064628,0.037038047952608455,0.18213577864901837,1.0930567226697154
7.119160176183229,0.48801668444671686,7.949362909179959,0.000692749862263506,-0.003247140671064628,0.037038047952608455,0.17993235159939613,1.0966479150099278
7.119852926045493,0.48476954377565223,7.986400957132567,0.000692749862263506,-0.003247140671064628,0.037038047952608455,0.1700255158296109,1.0947030112005616
7.120545675907756,0.4815224031045876,8.023439005085175,0.000692749862263506,-0.003247140671064628,0.037038047952608455,0.1702105616473325,1.096298892593049
7.12123842577002,0.478275262433523,8.060477053037783,0.000692749862263506,-0.003247140671064628,0.037038047952608455,0.16090391372628204,1.102237121423053
7.121931175632284,0.47502812176245834,8.09751510099039,0.000692749862263506,-0.003247140671064628,0.037038047952608455,0.1536704584135368,1.102493040483798
7.122623925494548,0.4717809810913937,8.134553148942999,0.000692749862263506,-0.003247140671064628,0.037038047952608455,0.15217017235447508,1.1133977653783234
7.123316675356811,0.4685338404203291,8.171591196895607,0.000692749862263506,-0.003247140671064628,0.037038047952608455,0.14453864495423244,1.1050581656862455
7.124009425219075,0.46528669974926445,8.208629244848215,0.000692749862263506,-0.003247140671064628,0.037038047952608455,0.1419309863830448,1.1010376447314814
7.124702175081339,0.4620395590781998,8.245667292800823,0.000692749862263506,-0.003247140671064628,0.037038047952608455,0.14341099939219967,1.0885733095769063
7.125394924943603,0.4587924184071352,8.28270534075343,0.000692749862263506,-0.003247140671064628,0.037038047952608455,0.13931245346882912,1.1050053043908346
7.126087674805866,0.45554527773607056,8.319743388706039,0.000692749862263506,-0.003247140671064628,0.037038047952608455,0.13610870073239636,1.09947060975183
7.12678042466813,0.45229813706500593,8.356781436658647,0.000692749862263506,-0.003247140671064628,0.037038047952608455,0.14022593803919514,1.1038093566334501
7.127473174530394,0.4490509963939413,8.393819484611255,0.000692749862263506,-0.003247140671064628,0.037038047952608455,0.13158675427470665,1.0944661344857454
7.128165924392658,0.4458038557228767,8.430857532563863,0.000692749862263506,-0.003247140671064628,0.037038047952608455,0.13527815690867837,1.0966758817698776
7.128858674254921,0.44255671505181204,8.46789558051647,0.000692749862263506,-0.003247140671064628,0.037038047952608455,0.1363798042692122,1.0938614874353514
7.129551424117185,0.4393095743807474,8.504933628469079,0.000692749862263506,-0.003247140671064628,0.037038047952608455,0.1383733622764307,1.0963170263018645
7.130244173979449,0.4360624337096828,8.541971676421687,0.000692749862263506,-0.003247140671064628,0.037038047952608455,0.14178618763221956,1.074555612896536
7.130936923841713,0.43281529303861815,8.579009724374295,0.000692749862263506,-0.003247140671064628,0.037038047952608455,0.13712903542032237,1.0857484973169502
7.131629673703976,0.4295681523675535,8.616047772326903,0.000692749862263506,-0.003247140671064628,0.037038047952608455,0.1350251688144019,1.087127439344885
7.13232242356624,0.4263210116964889,8.653085820279511,0.000692749862263506,-0.003247140671064628,0.037038047952608455,0.13327496344498277,1.0881273029321992
7.133015173428504,0.42307387102542426,8.690123868232119,0.000692749862263506,-0.003247140671064628,0.037038047952608455,0.13694843381441274,1.1039992397421128
7.133707923290768,0.41982673035435963,8.727161916184727,0.000692749862263506,-0.003247140671064628,0.037038047952608455,0.13252955766624,1.1164988490567866
7.134400673153031,0.416579589683295,8.764199964137335,0.000692749862263506,-0.003247140671064628,0.037038047952608455,0.13377017905785407,1.1116891132856876
7.135093423015295,0.4133324490122304,8.801238012089943,0.000692749862263506,-0.003247140671064628,0.037038047952608455,0.1325343811792144,1.1260857394031178
7.135786172877559,0.41008530834116574,8.838276060042551,0.000692749862263506,-0.003247140671064628,0.037038047952608455,0.13356602131053838,1.1107311823218808
7.136478922739823,0.4068381676701011,8.875314107995159,0.000692749862263506,-0.003247140671064628,0.037038047952608455,0.1321285071018191,1.0988306233519995
7.137171672602086,0.4035910269990365,8.912352155947767,0.000692749862263506,-0.003247140671064628,0.037038047952608455,0.1319414951939537,1.115490983961526
7.13786442246435,0.40034388632797185,8.949390203900375,0.000692749862263506,-0.003247140671064628,0.037038047952608455,0.130517347893437,1.1066619187672782
7.138557172326614,0.3970967456569072,8.986428251852983,0.000692749862263506,-0.003247140671064628,0.037038047952608455,0.1201634826117449,1.095916355387158
7.139249922188878,0.3938496049858426,9.023466299805591,0.000692749862263506,-0.003247140671064628,0.037038047952608455,0.11838326876265189,1.082909426470323
7.139942672051141,0.39060246431477796,9.060504347758199,0.000692749862263506,-0.003247140671064628,0.037038047952608455,0.12099049436262728,1.0843397044513112
7.140635421913405,0.38735532364371333,9.097542395710807,0.000692749862263506,-0.003247140671064628,0.037038047952608455,0.11757229390357331,1.0785806711276191
7.141328171775669,0.3841081829726487,9.134580443663415,0.000692749862263506,-0.003247140671064628,0.037038047952608455,0.1236118799684604,1.0796105477204263
7.142020921637933,0.3808610423015841,9.171618491616023,0.000692749862263506,-0.003247140671064628,0.037038047952608455,0.12784148046741342,1.0631782273119128
7.142713671500196,0.37761390163051944,9.208656539568631,0.000692749862263506,-0.003247140671064628,0.037038047952608455,0.13512595342254147,1.0567036093875526
7.112048638528202,0.3793397773624897,9.189560029795617,-0.03066503297199482,0.0017258757319702776,-0.01909650977301512,0.12442846192437791,1.0420250734401955
7.081383605556207,0.38106565309445994,9.170463520022603,-0.03066503297199482,0.0017258757319702776,-0.01909650977301512,0.1261344762343849,1.0531384806142035
7.050718572584212,0.3827915288264302,9.151367010249588,-0.03066503297199482,0.0017258757319702776,-0.01909650977301512,0.12121642068608533,1.0673319077134789
7.020053539612217,0.38451740455840044,9.132270500476574,-0.03066503297199482,0.0017258757319702776,-0.01909650977301512,0.11181999855458931,1.0635762801348134
6.989388506640222,0.3862432802903707,9.11317399070356,-0.03066503297199482,0.0017258757319702776,-0.01909650977301512,0.10744166271559637,1.0643645675843756
6.958723473668227,0.38796915602234094,9.094077480930546,-0.03066503297199482,0.0017258757319702776,-0.01909650977301512,0.11067137537118378,1.058758767041333
6.9280584406962324,0.3896950317543112,9.074980971157531,-0.03066503297199482,0.0017258757319702776,-0.01909650977301512,0.10605582647898841,1.0681579651811952
6.897393407724238,0.39142090748628144,9.055884461384517,-0.03066503297199482,0.0017258757319702776,-0.01909650977301512,0.10710600711183862,1.0954763518390254
6.866728374752243,0.3931467832182517,9.036787951611503,-0.03066503297199482,0.0017258757319702776,-0.01909650977301512,0.09576109922070601,1.0933805736473814
6.836063341780248,0.39487265895022194,9.017691441838489,-0.03066503297199482,0.0017258757319702776,-0.01909650977301512,0.09848864847981799,1.1117870663780074
6.805398308808253,0.3965985346821922,8.998594932065474,-0.03066503297199482,0.0017258757319702776,-0.01909650977301512,0.10095986214774938,1.1007021028883335
6.774733275836258,0.39832441041416244,8.97949842229246,-0.03066503297199482,0.0017258757319702776,-0.01909650977301512,0.10008596300686816,1.0913632250038092
6.744068242864263,0.4000502861461327,8.960401912519446,-0.03066503297199482,0.0017258757319702776,-0.01909650977301512,0.09614263032956852,1.072001905555002
6.7134032098922685,0.40177616187810294,8.941305402746432,-0.03066503297199482,0.0017258757319702776,-0.01909650977301512,0.08188471940473657,1.080962471119965
6.682738176920274,0.4035020376100732,8.922208892973417,-0.03066503297199482,0.0017258757319702776,-0.01909650977301512,0.08613116449978091,1.0833153170141818
6.652073143948279,0.40522791334204344,8.903112383200403,-0.03066503297199482,0.0017258757319702776,-0.01909650977301512,0.08129301958351658,1.10353474348024
6.621408110976284,0.4069537890740137,8.884015873427389,-0.03066503297199482,0.0017258757319702776,-0.01909650977301512,0.07976364531750357,1.1053768420269579
6.590743078004289,0.40867966480598394,8.864919363654375,-0.03066503297199482,0.0017258757319702776,-0.01909650977301512,0.07976364531750357,1.0918107596932713
6.560078045032294,0.4104055405379542,8.84582285388136,-0.03066503297199482,0.0017258757319702776,-0.01909650977301512,0.07976364531750357,1.091470642871463
6.529413012060299,0.41213141626992444,8.826726344108346,-0.03066503297199482,0.0017258757319702776,-0.01909650977301512,0.08544552711996095,1.0835238841714907
6.4987479790883045,0.4138572920018947,8.807629834335332,-0.03066503297199482,0.0017258757319702776,-0.01909650977301512,0.08544552711996095,1.080857019986043
6.46808294611631,0.41558316773386494,8.788533324562318,-0.03066503297199482,0.0017258757319702776,-0.01909650977301512,0.08544552711996095,1.0796316640864823
6.437417913144315,0.4173090434658352,8.769436814789303,-0.03066503297199482,0.0017258757319702776,-0.01909650977301512,0.08695150687740943,1.088025860076954
6.40675288017232,0.41903491919780544,8.75034030501629,-0.03066503297199482,0.0017258757319702776,-0.01909650977301512,0.08695150687740943,1.0689961976275926
6.376087847200325,0.4207607949297757,8.731243795243275,-0.03066503297199482,0.0017258757319702776,-0.01909650977301512,0.09639824229208246,1.0583693479995386
6.34542281422833,0.42248667066174594,8.71214728547026,-0.03066503297199482,0.0017258757319702776,-0.01909650977301512,0.09639824229208246,1.0613971681563574
6.314757781256335,0.4242125463937162,8.693050775697246,-0.03066503297199482,0.0017258757319702776,-0.01909650977301512,0.09639824229208246,1.0398622822047654
6.2840927482843405,0.42593842212568644,8.673954265924232,-0.03066503297199482,0.0017258757319702776,-0.01909650977301512,0.09639824229208246,1.038308570042978
6.253427715312346,0.4276642978576567,8.654857756151218,-0.03066503297199482,0.0017258757319702776,-0.01909650977301512,0.09639824229208246,1.0415020864769486
6.222762682340351,0.42939017358962694,8.635761246378204,-0.03066503297199482,0.0017258757319702776,-0.01909650977301512,0.09639824229208246,1.035512428044187
6.192097649368356,0.4311160493215972,8.61666473660519,-0.03066503297199482,0.0017258757319702776,-0.01909650977301512,0.09639824229208246,1.024627763112576
6.161432616396361,0.43284192505356744,8.597568226832175,-0.03066503297199482,0.0017258757319702776,-0.01909650977301512,0.09639824229208246,1.0200196827840773
6.130767583424366,0.4345678007855377,8.578471717059161,-0.03066503297199482,0.0017258757319702776,-0.01909650977301512,0.09639824229208246,1.0292385246635827
6.100102550452371,0.43629367651750794,8.559375207286147,-0.03066503297199482,0.0017258757319702776,-0.01909650977301512,0.09639824229208246,1.0330010194285855
6.04246217172037,0.4275927137915533,8.505998702756242,-0.057640378732001764,-0.008700962725954648,-0.053376504529903494,0.09639824229208246,1.0284513056316102
5.9848217929883685,0.4188917510655986,8.452622198226338,-0.057640378732001764,-0.008700962725954648,-0.053376504529903494,0.10417838205286387,1.0125733004092847
5.927181414256367,0.41019078833964395,8.399245693696434,-0.057640378732001764,-0.008700962725954648,-0.053376504529903494,0.10096396542976818,1.001056288438857
5.869541035524366,0.4014898256136893,8.34586918916653,-0.057640378732001764,-0.008700962725954648,-0.053376504529903494,0.10125540896224731,0.9826910686366129
5.811900656792364,0.3927888628877346,8.292492684636626,-0.057640378732001764,-0.008700962725954648,-0.053376504529903494,0.10318567059612435,0.977392614998261
5.754260278060363,0.38408790016177996,8.239116180106722,-0.057640378732001764,-0.008700962725954648,-0.053376504529903494,0.10346056735868317,0.9862080072791817
5.696619899328361,0.3753869374358253,8.185739675576817,-0.057640378732001764,-0.008700962725954648,-0.053376504529903494,0.10275458523466065,0.9864158682775742
5.63897952059636,0.36668597470987063,8.132363171046913,-0.057640378732001764,-0.008700962725954648,-0.053376504529903494,0.10531143856901799,0.9968228467589684
5.581339141864358,0.35798501198391597,8.07898666651701,-0.057640378732001764,-0.008700962725954648,-0.053376504529903494,0.10158153105686323,0.996130140800068
5.523698763132357,0.3492840492579613,8.025610161987105,-0.057640378732001764,-0.008700962725954648,-0.053376504529903494,0.09335868094886235,0.9906873999498789
5.466058384400355,0.34058308653200664,7.972233657457202,-0.057640378732001764,-0.008700962725954648,-0.053376504529903494,0.08501304500773704,0.9866834464647153
5.408418005668354,0.331882123806052,7.918857152927298,-0.057640378732001764,-0.008700962725954648,-0.053376504529903494,0.07725892567621151,0.9869140187776767
5.3507776269363525,0.3231811610800973,7.865480648397395,-0.057640378732001764,-0.008700962725954648,-0.053376504529903494,0.09573306512511462,0.9790330650859195
5.293137248204351,0.31448019835414265,7.812104143867492,-0.057640378732001764,-0.008700962725954648,-0.053376504529903494,0.09573306512511462,0.9786853107143233
5.23549686947235,0.305779235628188,7.758727639337589,-0.057640378732001764,-0.008700962725954648,-0.053376504529903494,0.09573306512511462,0.97431600765148
5.177856490740348,0.2970782729022333,7.705351134807685,-0.057640378732001764,-0.008700962725954648,-0.053376504529903494,0.09573306512511462,0.9709696810146117
5.120216112008347,0.28837731017627866,7.651974630277782,-0.057640378732001764,-0.008700962725954648,-0.053376504529903494,0.09573306512511462,0.9868315792992729
5.062575733276345,0.279676347450324,7.598598125747879,-0.057640378732001764,-0.008700962725954648,-0.053376504529903494,0.09555038431090457,0.9800901753422853
5.004935354544344,0.27097538472436933,7.5452216212179755,-0.057640378732001764,-0.008700962725954648,-0.053376504529903494,0.09226163822686466,0.9643757788485463
4.947294975812342,0.26227442199841466,7.491845116688072,-0.057640378732001764,-0.008700962725954648,-0.053376504529903494,0.09226163822686466,0.9517399854046131
4.889654597080341,0.25357345927246,7.438468612158169,-0.057640378732001764,-0.008700962725954648,-0.053376504529903494,0.08241015703204717,0.951178869789528
4.832014218348339,0.24487249654650536,7.385092107628266,-0.057640378732001764,-0.008700962725954648,-0.053376504529903494,0.09766957593781864,0.9621446863759658
4.774373839616338,0.23617153382055073,7.331715603098362,-0.057640378732001764,-0.008700962725954648,-0.053376504529903494,0.10413018913190346,0.945265025947108
4.7167334608843365,0.2274705710945961,7.278339098568459,-0.057640378732001764,-0.008700962725954648,-0.053376504529903494,0.10413018913190346,0.9440058371226561
4.659093082152335,0.21876960836864145,7.224962594038556,-0.057640378732001764,-0.008700962725954648,-0.053376504529903494,0.10524883976659405,0.9440503020319907
4.601452703420334,0.21006864564268682,7.1715860895086525,-0.057640378732001764,-0.008700962725954648,-0.053376504529903494,0.10524883976659405,0.9418274234535741
4.543812324688332,0.20136768291673218,7.118209584978749,-0.057640378732001764,-0.008700962725954648,-0.053376504529903494,0.10815548356035164,0.9473319272439603
4.486171945956331,0.19266672019077755,7.064833080448846,-0.057640378732001764,-0.008700962725954648,-0.053376504529903494,0.10815548356035164,0.9665499139481569
4.428531567224329,0.1839657574648229,7.011456575918943,-0.057640378732001764,-0.008700962725954648,-0.053376504529903494,0.10307125259980236,0.9643231637556209
4.370891188492328,0.17526479473886827,6.958080071389039,-0.057640378732001764,-0.008700962725954648,-0.053376504529903494,0.1238201969422733,0.9545553183546048
4.313250809760326,0.16656383201291364,6.904703566859136,-0.057640378732001764,-0.008700962725954648,-0.053376504529903494,0.1238201969422733,0.9615340533071334
4.255610431028325,0.157862869286959,6.851327062329233,-0.057640378732001764,-0.008700962725954648,-0.053376504529903494,0.1238201969422733,0.9499710644745331
4.1979700522963235,0.14916190656100436,6.7979505577993296,-0.057640378732001764,-0.008700962725954648,-0.053376504529903494,0.1482559789997229,0.9419859284244166
4.140329673564322,0.14046094383504973,6.744574053269426,-0.057640378732001764,-0.008700962725954648,-0.053376504529903494,0.1482559789997229,0.9387544047025773
4.082689294832321,0.1317599811090951,6.691197548739523,-0.057640378732001764,-0.008700962725954648,-0.053376504529903494,0.1482559789997229,0.9347603084037618
4.025048916100319,0.12305901838314044,6.63782104420962,-0.057640378732001764,-0.008700962725954648,-0.053376504529903494,0.142337735019776,0.945827683163554
3.9674085373683172,0.11435805565718579,6.584444539679716,-0.057640378732001764,-0.008700962725954648,-0.053376504529903494,0.142337735019776,0.9738533753633288
3.9097681586363153,0.10565709293123114,6.531068035149813,-0.057640378732001764,-0.008700962725954648,-0.053376504529903494,0.142337735019776,0.9655273226897623
3.8521277799043134,0.09695613020527649,6.47769153061991,-0.057640378732001764,-0.008700962725954648,-0.053376504529903494,0.142337735019776,0.9578559211397661
3.7944874011723115,0.08825516747932184,6.424315026090007,-0.057640378732001764,-0.008700962725954648,-0.053376504529903494,0.13964380958536549,0.9462597711798967
3.7368470224403096,0.07955420475336719,6.370938521560103,-0.057640378732001764,-0.008700962725954648,-0.053376504529903494,0.16547361144643646,0.9447782546567515
3.6792066437083077,0.07085324202741254,6.3175620170302,-0.057640378732001764,-0.008700962725954648,-0.053376504529903494,0.16547361144643646,0.9584840647739037
3.621566264976306,0.06215227930145789,6.264185512500297,-0.057640378732001764,-0.008700962725954648,-0.053376504529903494,0.16547361144643646,0.9489743985294026
3.563925886244304,0.05345131657550324,6.2108090079703935,-0.057640378732001764,-0.008700962725954648,-0.053376504529903494,0.16547361144643646,0.9451153939276632
3.506285507512302,0.04475035384954859,6.15743250344049,-0.057640378732001764,-0.008700962725954648,-0.053376504529903494,0.16547361144643646,0.9443462333950549
3.4486451287803,0.03604939112359394,6.104055998910587,-0.057640378732001764,-0.008700962725954648,-0.053376504529903494,0.16063641316261232,0.9375413765528848
3.3910047500482983,0.02734842839763929,6.050679494380684,-0.057640378732001764,-0.008700962725954648,-0.053376504529903494,0.17222974997431428,0.9201306066404726
3.3333643713162964,0.01864746567168464,5.99730298985078,-0.057640378732001764,-0.008700962725954648,-0.053376504529903494,0.17222974997431428,0.9086498225306523
3.2757239925842945,0.009946502945729992,5.943926485320877,-0.057640378732001764,-0.008700962725954648,-0.053376504529903494,0.16573709927489977,0.9066688108592645
3.2180836138522926,0.0012455402197753436,5.890549980790974,-0.057640378732001764,-0.008700962725954648,-0.053376504529903494,0.1762019143791777,0.8997618501634495
3.1604432351202907,-0.007455422506179305,5.8371734762610705,-0.057640378732001764,-0.008700962725954648,-0.053376504529903494,0.1762019143791777,0.8980672276130228
3.102802856388289,-0.016156385232133953,5.783796971731167,-0.057640378732001764,-0.008700962725954648,-0.053376504529903494,0.17180458480749625,0.8907047508336184
3.045162477656287,-0.024857347958088603,5.730420467201264,-0.057640378732001764,-0.008700962725954648,-0.053376504529903494,0.18717742746911345,0.8919016780392454
2.987522098924285,-0.033558310684043254,5.677043962671361,-0.057640378732001764,-0.008700962725954648,-0.053376504529903494,0.18790525893110532,0.9054651067182655
2.929881720192283,-0.042259273409997904,5.623667458141457,-0.057640378732001764,-0.008700962725954648,-0.053376504529903494,0.1801513090305459,0.9338318032943024
2.947805174263675,-0.03642266827596788,5.58750730469301,0.017923454071391842,0.005836605134030024,-0.03616015344844724,0.18734658446841013,0.9331134042819582
2.9657286283350666,-0.030586063141937854,5.5513471512445625,0.017923454071391842,0.005836605134030024,-0.03616015344844724,0.17958617174416192,0.9228094458327208
2.9836520824064583,-0.02474945800790783,5.515186997796115,0.017923454071391842,0.005836605134030024,-0.03616015344844724,0.18772459346475354,0.9200522024904186
3.00157553647785,-0.018912852873877804,5.4790268443476675,0.017923454071391842,0.005836605134030024,-0.03616015344844724,0.18350130890369123,0.9048797026195474
3.0194989905492418,-0.01307624773984778,5.44286669089922,0.017923454071391842,0.005836605134030024,-0.03616015344844724,0.1895373571326178,0.9079739145369031
3.0374224446206335,-0.0072396426058177555,5.406706537450773,0.017923454071391842,0.005836605134030024,-0.03616015344844724,0.1895373571326178,0.9225326637224577
3.055345898692025,-0.0014030374717877315,5.370546384002325,0.017923454071391842,0.005836605134030024,-0.03616015344844724,0.1895373571326178,0.9124985083756605
3.073269352763417,0.0044335676622422925,5.334386230553878,0.017923454071391842,0.005836605134030024,-0.03616015344844724,0.19207036186892737,0.8902332499447743
3.0911928068348087,0.010270172796272316,5.29822607710543,0.017923454071391842,0.005836605134030024,-0.03616015344844724,0.2167591028646369,0.876644702077565
3.1091162609062004,0.01610677793030234,5.262065923656983,0.017923454071391842,0.005836605134030024,-0.03616015344844724,0.2167591028646369,0.858058193461892
3.127039714977592,0.021943383064332366,5.225905770208535,0.017923454071391842,0.005836605134030024,-0.03616015344844724,0.2167591028646369,0.8653662694119724
3.144963169048984,0.02777998819836239,5.189745616760088,0.017923454071391842,0.005836605134030024,-0.03616015344844724,0.2167591028646369,0.867010721264293
3.1628866231203756,0.03361659333239241,5.15358546331164,0.017923454071391842,0.005836605134030024,-0.03616015344844724,0.21121614289427906,0.8465122708840336
3.1808100771917673,0.03945319846642244,5.117425309863193,0.017923454071391842,0.005836605134030024,-0.03616015344844724,0.20441656585994428,0.8423278002836665
3.198733531263159,0.04528980360045246,5.081265156414745,0.017923454071391842,0.005836605134030024,-0.03616015344844724,0.22927024019756417,0.8287007889557152
3.216656985334551,0.05112640873448249,5.045105002966298,0.017923454071391842,0.005836605134030024,-0.03616015344844724,0.22320410515255606,0.8453736420205875
3.2345804394059425,0.05696301386851251,5.00894484951785,0.017923454071391842,0.005836605134030024,-0.03616015344844724,0.22320410515255606,0.8492205230250185
3.2525038934773343,0.06279961900254254,4.972784696069403,0.017923454071391842,0.005836605134030024,-0.03616015344844724,0.21320830443965735,0.8314642492152765
3.270427347548726,0.06863622413657255,4.936624542620955,0.017923454071391842,0.005836605134030024,-0.03616015344844724,0.22339291633820854,0.8251503947304735
3.2883508016201177,0.07447282927060257,4.900464389172508,0.017923454071391842,0.005836605134030024,-0.03616015344844724,0.21770233133349598,0.8276642728744275
3.3062742556915095,0.08030943440463259,4.8643042357240605,0.017923454071391842,0.005836605134030024,-0.03616015344844724,0.22607002739279974,0.8308016113798861
3.324197709762901,0.08614603953866261,4.828144082275613,0.017923454071391842,0.005836605134030024,-0.03616015344844724,0.23798990868831907,0.8388353668671271
3.342121163834293,0.09198264467269263,4.7919839288271655,0.017923454071391842,0.005836605134030024,-0.03616015344844724,0.23916375028714407,0.8311383934657329
3.3600446179056846,0.09781924980672264,4.755823775378718,0.017923454071391842,0.005836605134030024,-0.03616015344844724,0.23916375028714407,0.8297755577230383
3.3779680719770764,0.10365585494075266,4.719663621930271,0.017923454071391842,0.005836605134030024,-0.03616015344844724,0.2325933881769901,0.8291558297395413
3.395891526048468,0.10949246007478268,4.683503468481823,0.017923454071391842,0.005836605134030024,-0.03616015344844724,0.2285371026307832,0.8491998497264935
3.41381498011986,0.1153290652088127,4.647343315033376,0.017923454071391842,0.005836605134030024,-0.03616015344844724,0.22798062903804506,0.8525597735351087
3.4317384341912516,0.12116567034284272,4.611183161584928,0.017923454071391842,0.005836605134030024,-0.03616015344844724,0.2543409170782542,0.8503578864346645
3.4496618882626433,0.12700227547687273,4.575023008136481,0.017923454071391842,0.005836605134030024,-0.03616015344844724,0.2543409170782542,0.8532582878148806
3.467585342334035,0.13283888061090277,4.538862854688033,0.017923454071391842,0.005836605134030024,-0.03616015344844724,0.24685212034859647,0.8471277037940314
3.4855087964054268,0.1386754857449328,4.502702701239586,0.017923454071391842,0.005836605134030024,-0.03616015344844724,0.2608779055329274,0.847833239903614
3.5034322504768185,0.14451209087896283,4.466542547791138,0.017923454071391842,0.005836605134030024,-0.03616015344844724,0.2608779055329274,0.864249631623036
3.5213557045482102,0.15034869601299286,4.430382394342691,0.017923454071391842,0.005836605134030024,-0.03616015344844724,0.2519291180772552,0.872164325599312
3.539279158619602,0.1561853011470229,4.394222240894243,0.017923454071391842,0.005836605134030024,-0.03616015344844724,0.25154410969282437,0.8722448948711403
3.5189946333074347,0.17161000704234752,4.33854650113362,-0.02028452531216723,0.015424705895324633,-0.055675739760623746,0.27370548540119843,0.8711514624270421
3.4987101079952674,0.18703471293767215,4.282870761372997,-0.02028452531216723,0.015424705895324633,-0.055675739760623746,0.27370548540119843,0.8686538462790515
3.4784255826831,0.20245941883299678,4.227195021612373,-0.02028452531216723,0.015424705895324633,-0.055675739760623746,0.2890561407757567,0.8688236015058641
3.458141057370933,0.21788412472832142,4.17151928185175,-0.02028452531216723,0.015424705895324633,-0.055675739760623746,0.2890561407757567,0.8601577559771759
3.4378565320587655,0.23330883062364605,4.115843542091127,-0.02028452531216723,0.015424705895324633,-0.055675739760623746,0.2890561407757567,0.8410816920060135
3.4175720067465982,0.24873353651897068,4.060167802330503,-0.02028452531216723,0.015424705895324633,-0.055675739760623746,0.2890561407757567,0.8549531101078681
3.397287481434431,0.2641582424142953,4.00449206256988,-0.02028452531216723,0.015424705895324633,-0.055675739760623746,0.2890561407757567,0.8452704878061514
3.3770029561222636,0.27958294830961994,3.948816322809256,-0.02028452531216723,0.015424705895324633,-0.055675739760623746,0.28581222602598044,0.8387688383447308
3.3567184308100964,0.29500765420494457,3.8931405830486323,-0.02028452531216723,0.015424705895324633,-0.055675739760623746,0.28581222602598044,0.8349875783973169
3.336433905497929,0.3104323601002692,3.8374648432880085,-0.02028452531216723,0.015424705895324633,-0.055675739760623746,0.2921444729080557,0.8117283685063074
3.3161493801857618,0.32585706599559383,3.7817891035273847,-0.02028452531216723,0.015424705895324633,-0.055675739760623746,0.30480854135420526,0.8081070669617829
3.2958648548735945,0.34128177189091846,3.726113363766761,-0.02028452531216723,0.015424705895324633,-0.055675739760623746,0.2983401126259885,0.8064088407186648
3.275580329561427,0.3567064777862431,3.670437624006137,-0.02028452531216723,0.015424705895324633,-0.055675739760623746,0.31219503904931367,0.8132884303430649
3.25529580424926,0.3721311836815677,3.6147618842455134,-0.02028452531216723,0.015424705895324633,-0.055675739760623746,0.3198337637852815,0.8073158575297902
3.2350112789370926,0.38755588957689235,3.5590861444848896,-0.02028452531216723,0.015424705895324633,-0.055675739760623746,0.31313888006708873,0.8130283187857866
3.2147267536249253,0.402980595472217,3.503410404724266,-0.02028452531216723,0.015424705895324633,-0.055675739760623746,0.3131483472163375,0.8279515550979474
3.194442228312758,0.4184053013675416,3.447734664963642,-0.02028452531216723,0.015424705895324633,-0.055675739760623746,0.3219329709726888,0.8425968724272521
3.1741577030005907,0.43383000726286625,3.392058925203018,-0.02028452531216723,0.015424705895324633,-0.055675739760623746,0.3196338529244683,0.8481943312815595
3.1538731776884235,0.4492547131581909,3.3363831854423944,-0.02028452531216723,0.015424705895324633,-0.055675739760623746,0.3574722144114748,0.865656211973275
3.133588652376256,0.4646794190535155,3.2807074456817706,-0.02028452531216723,0.015424705895324633,-0.055675739760623746,0.3574722144114748,0.8510644276630125
3.113304127064089,0.48010412494884014,3.225031705921147,-0.02028452531216723,0.015424705895324633,-0.055675739760623746,0.3574722144114748,0.8393337236052897
3.0930196017519216,0.49552883084416477,3.169355966160523,-0.02028452531216723,0.015424705895324633,-0.055675739760623746,0.3574722144114748,0.8475871313055314
3.0727350764397543,0.5109535367394894,3.1136802263998993,-0.02028452531216723,0.015424705895324633,-0.055675739760623746,0.36276859310217646,0.8380653374062993
3.052450551127587,0.526378242634814,3.0580044866392755,-0.02028452531216723,0.015424705895324633,-0.055675739760623746,0.35886514635428163,0.8320280395084936
3.0321660258154197,0.5418029485301387,3.0023287468786517,-0.02028452531216723,0.015424705895324633,-0.055675739760623746,0.3610258522244048,0.850120031840023
3.0118815005032524,0.5572276544254633,2.946653007118028,-0.02028452531216723,0.015424705895324633,-0.055675739760623746,0.3639783336925241,0.8729794823720742
2.991596975191085,0.5726523603207879,2.890977267357404,-0.02028452531216723,0.015424705895324633,-0.055675739760623746,0.37445175701242517,0.896251971522095
2.971312449878918,0.5880770662161126,2.8353015275967803,-0.02028452531216723,0.015424705895324633,-0.055675739760623746,0.37162085697762265,0.9199411974970112
2.9510279245667506,0.6035017721114372,2.7796257878361565,-0.02028452531216723,0.015424705895324633,-0.055675739760623746,0.37593827373908945,0.9440508585037494
2.9307433992545833,0.6189264780067618,2.7239500480755328,-0.02028452531216723,0.015424705895324633,-0.055675739760623746,0.3776920016225248,0.9685846527492357
2.910458873942416,0.6343511839020864,2.668274308314909,-0.02028452531216723,0.015424705895324633,-0.055675739760623746,0.3941887786757763,0.9935462784403961
2.8901743486302487,0.6497758897974111,2.612598568554285,-0.02028452531216723,0.015424705895324633,-0.055675739760623746,0.39157422952384985,1.018939433784156
2.8698898233180814,0.6652005956927357,2.5569228287936614,-0.02028452531216723,0.015424705895324633,-0.055675739760623746,0.4034413363613204,1.0447678169874424
2.849605298005914,0.6806253015880603,2.5012470890330376,-0.02028452531216723,0.015424705895324633,-0.055675739760623746,0.4210862115255616,1.0710351262571811
2.829320772693747,0.696050007483385,2.445571349272414,-0.02028452531216723,0.015424705895324633,-0.055675739760623746,0.4210862115255616,1.0977450598002985
2.8090362473815795,0.7114747133787096,2.38989560951179,-0.02028452531216723,0.015424705895324633,-0.055675739760623746,0.41794971415783877,1.1249013158237193
2.7887517220694122,0.7268994192740342,2.3342198697511662,-0.02028452531216723,0.015424705895324633,-0.055675739760623746,0.41794971415783877,1.152507592534371
2.768467196757245,0.7423241251693589,2.2785441299905425,-0.02028452531216723,0.015424705895324633,-0.055675739760623746,0.4343522369134116,1.18056758813918
2.7481826714450777,0.7577488310646835,2.2228683902299187,-0.02028452531216723,0.015424705895324633,-0.055675739760623746,0.42643504838627677,1.209085000845071
2.7278981461329104,0.7731735369600081,2.167192650469295,-0.02028452531216723,0.015424705895324633,-0.055675739760623746,0.46745948647524055,1.2380635288589708
2.707613620820743,0.7885982428553328,2.111516910708671,-0.02028452531216723,0.015424705895324633,-0.055675739760623746,0.4605289591766072,1.267506870387805
2.687329095508576,0.8040229487506574,2.0558411709480473,-0.02028452531216723,0.015424705895324633,-0.055675739760623746,0.45719428790228167,1.2974187236385009
2.6670445701964085,0.819447654645982,2.0001654311874235,-0.02028452531216723,0.015424705895324633,-0.055675739760623746,0.45719428790228167,1.3278027868179834
2.646760044884241,0.8348723605413066,1.9444896914267997,-0.02028452531216723,0.015424705895324633,-0.055675739760623746,0.4630586510083004,1.3586627581331787
2.626475519572074,0.8502970664366313,1.888813951666176,-0.02028452531216723,0.015424705895324633,-0.055675739760623746,0.4964850559745817,1.3900023357910132
2.604639229286295,0.8506259126991023,1.8768066475454748,-0.02183629028577877,0.00032884626247097116,-0.012007304120701128,0.4964850559745817,1.4218252179984132
2.582802939000516,0.8509547589615732,1.8647993434247736,-0.02183629028577877,0.00032884626247097116,-0.012007304120701128,0.4964850559745817,1.4541351029623046
2.560966648714737,0.8512836052240442,1.8527920393040724,-0.02183629028577877,0.00032884626247097116,-0.012007304120701128,0.4964850559745817,1.4869356888896128
2.539130358428958,0.8516124514865152,1.8407847351833713,-0.02183629028577877,0.00032884626247097116,-0.012007304120701128,0.4964850559745817,1.5202306739872646
2.5172940681431792,0.8519412977489862,1.82877743106267,-0.02183629028577877,0.00032884626247097116,-0.012007304120701128,0.5030391184068038,1.5540237564621864
2.4954577778574003,0.8522701440114572,1.816770126941969,-0.02183629028577877,0.00032884626247097116,-0.012007304120701128,0.5087495679261924,1.5883186345213038
2.4736214875716214,0.8525989902739282,1.8047628228212678,-0.02183629028577877,0.00032884626247097116,-0.012007304120701128,0.5107255584356981,1.6231190063715424
2.4517851972858424,0.8529278365363991,1.7927555187005666,-0.02183629028577877,0.00032884626247097116,-0.012007304120701128,0.5080651859732237,1.6584285702198287
2.4299489070000635,0.8532566827988701,1.7807482145798654,-0.02183629028577877,0.00032884626247097116,-0.012007304120701128,0.5347650965519272,1.6942510242730895
2.4081126167142846,0.8535855290613411,1.7687409104591643,-0.02183629028577877,0.00032884626247097116,-0.012007304120701128,0.5347650965519272,1.73059006673825
2.3862763264285056,0.8539143753238121,1.756733606338463,-0.02183629028577877,0.00032884626247097116,-0.012007304120701128,0.5347650965519272,1.7674493958222364
2.3644400361427267,0.8542432215862831,1.744726302217762,-0.02183629028577877,0.00032884626247097116,-0.012007304120701128,0.5260056294110022,1.8048327097319745
2.3426037458569478,0.8545720678487541,1.7327189980970608,-0.02183629028577877,0.00032884626247097116,-0.012007304120701128,0.5260056294110022,1.8427437066743917
2.320767455571169,0.854900914111225,1.7207116939763596,-0.02183629028577877,0.00032884626247097116,-0.012007304120701128,0.5206680813271398,1.8811860848564128
2.29893116528539,0.855229760373696,1.7087043898556584,-0.02183629028577877,0.00032884626247097116,-0.012007304120701128,0.5154622522736313,1.920163542484964
2.277094874999611,0.855558606636167,1.6966970857349573,-0.02183629028577877,0.00032884626247097116,-0.012007304120701128,0.5061950677136227,1.9286401134924807
2.255258584713832,0.855887452898638,1.684689781614256,-0.02183629028577877,0.00032884626247097116,-0.012007304120701128,0.5376194519835178,1.9371417808770612
2.233422294428053,0.856216299161109,1.672682477493555,-0.02183629028577877,0.00032884626247097116,-0.012007304120701128,0.5376194519835178,1.9456685817349342
2.211586004142274,0.85654514542358,1.6606751733728538,-0.02183629028577877,0.00032884626247097116,-0.012007304120701128,0.5376194519835178,1.9542205531623247
2.2614084281041396,0.8540155726580514,1.7151778154294066,0.049822423961865564,-0.002529572765528563,0.05450264205655282,0.5376194519835178,1.9627977322554626
2.311230852066005,0.8514859998925228,1.7696804574859595,0.049822423961865564,-0.002529572765528563,0.05450264205655282,0.5315298987201621,1.971400156110577
2.3610532760278704,0.8489564271269943,1.8241830995425123,0.049822423961865564,-0.002529572765528563,0.05450264205655282,0.5340649520744838,1.9800278618238927
2.410875699989736,0.8464268543614657,1.8786857415990652,0.049822423961865564,-0.002529572765528563,0.05450264205655282,0.5397527222944553,1.9886808864916394
2.4606981239516013,0.8438972815959371,1.933188383655618,0.049822423961865564,-0.002529572765528563,0.05450264205655282,0.5345832919038017,1.9973592672100442
2.5105205479134667,0.8413677088304086,1.987691025712171,0.049822423961865564,-0.002529572765528563,0.05450264205655282,0.5345832919038017,2.0060630410753357
2.560342971875332,0.83883813606488,2.0421936677687236,0.049822423961865564,-0.002529572765528563,0.05450264205655282,0.5345832919038017,2.0147922451837434
2.6101653958371975,0.8363085632993514,2.096696309825276,0.049822423961865564,-0.002529572765528563,0.05450264205655282,0.5345832919038017,2.023546916631491
2.659987819799063,0.8337789905338229,2.151198951881829,0.049822423961865564,-0.002529572765528563,0.05450264205655282,0.5345832919038017,2.03232709251481
2.7098102437609284,0.8312494177682943,2.2057015939383815,0.049822423961865564,-0.002529572765528563,0.05450264205655282,0.5345832919038017,2.0411328099299273
2.759632667722794,0.8287198450027657,2.260204235994934,0.049822423961865564,-0.002529572765528563,0.05450264205655282,0.5345832919038017,2.04996410597307
2.8094550916846592,0.8261902722372372,2.314706878051487,0.049822423961865564,-0.002529572765528563,0.05450264205655282,0.5345832919038017,2.058821017740466
2.8592775156465247,0.8236606994717086,2.3692095201080394,0.049822423961865564,-0.002529572765528563,0.05450264205655282,0.5345832919038017,2.0677035823283436
2.90909993960839,0.82113112670618,2.423712162164592,0.049822423961865564,-0.002529572765528563,0.05450264205655282,0.5345832919038017,2.076611836832931
2.9589223635702555,0.8186015539406515,2.4782148042211447,0.049822423961865564,-0.002529572765528563,0.05450264205655282,0.5345832919038017,2.085545818350457
3.008744787532121,0.8160719811751229,2.5327174462776973,0.049822423961865564,-0.002529572765528563,0.05450264205655282,0.5365240556202345,2.085545818350457
3.0585672114939864,0.8135424084095944,2.58722008833425,0.049822423961865564,-0.002529572765528563,0.05450264205655282,0.5293012556159296,2.085545818350457
3.108389635455852,0.8110128356440658,2.6417227303908026,0.049822423961865564,-0.002529572765528563,0.05450264205655282,0.5218861026516177,2.085545818350457
3.158212059417717,0.8084832628785372,2.6962253724473553,0.049822423961865564,-0.002529572765528563,0.05450264205655282,0.5315874488351072,2.085545818350457
3.2080344833795826,0.8059536901130087,2.750728014503908,0.049822423961865564,-0.002529572765528563,0.05450264205655282,0.5308320040632025,2.085545818350457
3.257856907341448,0.8034241173474801,2.8052306565604606,0.049822423961865564,-0.002529572765528563,0.05450264205655282,0.5337906955611671,2.085545818350457
3.3076793313033135,0.8008945445819515,2.859733298617013,0.049822423961865564,-0.002529572765528563,0.05450264205655282,0.5281329259647061,2.085545818350457
3.357501755265179,0.798364971816423,2.914235940673566,0.049822423961865564,-0.002529572765528563,0.05450264205655282,0.5244669003081806,2.085545818350457
3.4073241792270443,0.7958353990508944,2.9687385827301185,0.049822423961865564,-0.002529572765528563,0.05450264205655282,0.5216199816879323,2.085545818350457
3.4571466031889098,0.7933058262853658,3.023241224786671,0.049822423961865564,-0.002529572765528563,0.05450264205655282,0.5232083643414994,2.085545818350457
3.506969027150775,0.7907762535198373,3.0777438668432238,0.049822423961865564,-0.002529572765528563,0.05450264205655282,0.521331598599564,2.1017765583675407
3.5567914511126406,0.7882466807543087,3.1322465088997764,0.049822423961865564,-0.002529572765528563,0.05450264205655282,0.5124751914380923,2.108807747748511
3.606613875074506,0.7857171079887801,3.186749150956329,0.049822423961865564,-0.002529572765528563,0.05450264205655282,0.5132354293730715,2.106657544831348
3.6564362990363715,0.7831875352232516,3.2412517930128817,0.049822423961865564,-0.002529572765528563,0.05450264205655282,0.5199995297638141,2.0925949676797546
3.706258722998237,0.780657962457723,3.2957544350694343,0.049822423961865564,-0.002529572765528563,0.05450264205655282,0.5154278681759588,2.083242395453083
3.7560811469601023,0.7781283896921944,3.350257077125987,0.049822423961865564,-0.002529572765528563,0.05450264205655282,0.5162631245499455,2.0853380740984995
3.8059035709219677,0.7755988169266659,3.4047597191825396,0.049822423961865564,-0.002529572765528563,0.05450264205655282,0.5181031677537937,2.0726614181873493
3.855725994883833,0.7730692441611373,3.4592623612390923,0.049822423961865564,-0.002529572765528563,0.05450264205655282,0.5190626385500658,2.0665940173913677
3.9055484188456986,0.7705396713956087,3.513765003295645,0.049822423961865564,-0.002529572765528563,0.05450264205655282,0.52728244932731,2.0466754082787313
3.955370842807564,0.7680100986300802,3.5682676453521975,0.049822423961865564,-0.002529572765528563,0.05450264205655282,0.5271258292475183,2.0387399957679246
4.00519326676943,0.7654805258645516,3.62277028740875,0.049822423961865564,-0.002529572765528563,0.05450264205655282,0.5310996393717685,2.035441908268524
4.055015690731295,0.762950953099023,3.677272929465303,0.049822423961865564,-0.002529572765528563,0.05450264205655282,0.5385502255303188,2.0483235183934414
4.104838114693161,0.7604213803334945,3.7317755715218555,0.049822423961865564,-0.002529572765528563,0.05450264205655282,0.5344801773720753,2.034328512614235
4.154660538655026,0.7578918075679659,3.786278213578408,0.049822423961865564,-0.002529572765528563,0.05450264205655282,0.5347136187160964,2.0472611657309696
4.204482962616892,0.7553622348024374,3.8407808556349607,0.049822423961865564,-0.002529572765528563,0.05450264205655282,0.5305379445857559,2.0321280379982616
4.254305386578757,0.7528326620369088,3.8952834976915134,0.049822423961865564,-0.002529572765528563,0.05450264205655282,0.5338451274244735,2.0521084629604416
4.304127810540622,0.7503030892713802,3.949786139748066,0.049822423961865564,-0.002529572765528563,0.05450264205655282,0.5312559869352369,2.063286009149516
4.353950234502488,0.7477735165058517,4.004288781804619,0.049822423961865564,-0.002529572765528563,0.05450264205655282,0.5341772459596124,2.06607298457121
4.403772658464353,0.7452439437403231,4.058791423861172,0.049822423961865564,-0.002529572765528563,0.05450264205655282,0.5272944652792199,2.050740173863934
4.383161661151209,0.7621030071706493,4.115924086500877,-0.02061099731314421,0.016859063430326157,0.05713266263970514,0.5263554923403801,2.0538085330786813
4.362550663838064,0.7789620706009754,4.173056749140582,-0.02061099731314421,0.016859063430326157,0.05713266263970514,0.5272836574423685,2.037269340478424
4.34193966652492,0.7958211340313016,4.230189411780287,-0.02061099731314421,0.016859063430326157,0.05713266263970514,0.5311134356825873,2.0320699445749915
4.321328669211775,0.8126801974616278,4.2873220744199925,-0.02061099731314421,0.016859063430326157,0.05713266263970514,0.5283778340837612,2.0367713329097934
4.300717671898631,0.829539260891954,4.3444547370596975,-0.02061099731314421,0.016859063430326157,0.05713266263970514,0.5210471917084577,2.026764214657443
4.280106674585486,0.8463983243222801,4.401587399699403,-0.02061099731314421,0.016859063430326157,0.05713266263970514,0.5228087574374726,2.0445813907175547
4.259495677272342,0.8632573877526063,4.458720062339108,-0.02061099731314421,0.016859063430326157,0.05713266263970514,0.5215346072393209,2.0419399207406705
4.238884679959197,0.8801164511829325,4.515852724978813,-0.02061099731314421,0.016859063430326157,0.05713266263970514,0.5273041516111623,2.0492077309347176
4.2182736826460525,0.8969755146132586,4.572985387618518,-0.02061099731314421,0.016859063430326157,0.05713266263970514,0.5244056111047798,2.050871197145526
4.197662685332908,0.9138345780435848,4.630118050258223,-0.02061099731314421,0.016859063430326157,0.05713266263970514,0.5275584974945009,2.0325830478609084
4.1770516880197635,0.930693641473911,4.687250712897928,-0.02061099731314421,0.016859063430326157,0.05713266263970514,0.5213819302520394,2.0156958082126417
4.156440690706619,0.9475527049042372,4.744383375537633,-0.02061099731314421,0.016859063430326157,0.05713266263970514,0.5183119036476622,2.0160855110984377
4.135829693393474,0.9644117683345633,4.801516038177338,-0.02061099731314421,0.016859063430326157,0.05713266263970514,0.5177924572040815,2.014170478689252
4.11521869608033,0.9812708317648895,4.858648700817043,-0.02061099731314421,0.016859063430326157,0.05713266263970514,0.5220457257215166,2.019632249295514
4.094607698767185,0.9981298951952157,4.915781363456748,-0.02061099731314421,0.016859063430326157,0.05713266263970514,0.5177343889766234,2.016427831726716
4.073996701454041,1.0149889586255418,4.972914026096453,-0.02061099731314421,0.016859063430326157,0.05713266263970514,0.5107059065534595,2.011829628509737
4.053385704140896,1.031848022055868,5.030046688736158,-0.02061099731314421,0.016859063430326157,0.05713266263970514,0.5098244691923942,2.020042414656224
4.032774706827752,1.048707085486194,5.087179351375863,-0.02061099731314421,0.016859063430326157,0.05713266263970514,0.509464719559214,2.0151250723839205
4.012163709514607,1.06556614891652,5.1443120140155685,-0.02061099731314421,0.016859063430326157,0.05713266263970514,0.4988217342744675,2.0216862249302023
3.991552712201463,1.082425212346846,5.2014446766552735,-0.02061099731314421,0.016859063430326157,0.05713266263970514,0.4981615380318267,2.0177090267729945
3.970941714888319,1.0992842757771721,5.258577339294979,-0.02061099731314421,0.016859063430326157,0.05713266263970514,0.4881766930221579,2.01912233080773
3.950330717575175,1.1161433392074982,5.315710001934684,-0.02061099731314421,0.016859063430326157,0.05713266263970514,0.50032135377959,1.9969715572773439
3.929719720262031,1.1330024026378243,5.372842664574389,-0.02061099731314421,0.016859063430326157,0.05713266263970514,0.500285197847632,1.981672258859962
3.909108722948887,1.1498614660681503,5.429975327214094,-0.02061099731314421,0.016859063430326157,0.05713266263970514,0.4978025289784094,1.9677771555762311
3.8884977256357427,1.1667205294984764,5.487107989853799,-0.02061099731314421,0.016859063430326157,0.05713266263970514,0.494400144182717,1.9806043400918076
3.8678867283225986,1.1835795929288024,5.544240652493504,-0.02061099731314421,0.016859063430326157,0.05713266263970514,0.49060794111252504,1.9829968421121498
3.8472757310094545,1.2004386563591285,5.601373315133209,-0.02061099731314421,0.016859063430326157,0.05713266263970514,0.489715768654237,1.9806829330555213
3.8266647336963104,1.2172977197894546,5.658505977772914,-0.02061099731314421,0.016859063430326157,0.05713266263970514,0.4864718896592973,1.9671996607341315
3.8060537363831664,1.2341567832197806,5.715638640412619,-0.02061099731314421,0.016859063430326157,0.05713266263970514,0.47661424296757365,1.963088649972155
3.7854427390700223,1.2510158466501067,5.772771303052324,-0.02061099731314421,0.016859063430326157,0.05713266263970514,0.47339977945172834,1.9706923151656317
3.764831741756878,1.2678749100804327,5.829903965692029,-0.02061099731314421,0.016859063430326157,0.05713266263970514,0.46753956270561225,1.9620759186072636
3.744220744443734,1.2847339735107588,5.887036628331734,-0.02061099731314421,0.016859063430326157,0.05713266263970514,0.46279512235230785,1.9734454479800334
3.72360974713059,1.3015930369410849,5.944169290971439,-0.02061099731314421,0.016859063430326157,0.05713266263970514,0.4587240084890853,1.9877862491209908
3.702998749817446,1.318452100371411,6.0013019536111445,-0.02061099731314421,0.016859063430326157,0.05713266263970514,0.4614727733846216,1.9847785979772494
3.682387752504302,1.335311163801737,6.05843461625085,-0.02061099731314421,0.016859063430326157,0.05713266263970514,0.45134438378962355,1.96995722501702
3.6617767551911578,1.352170227232063,6.115567278890555,-0.02061099731314421,0.016859063430326157,0.05713266263970514,0.44616687975604513,1.9838824308744811
3.6411657578780137,1.369029290662389,6.17269994153026,-0.02061099731314421,0.016859063430326157,0.05713266263970514,0.44230162589783684,1.9908581377667933
3.6205547605648696,1.3858883540927152,6.229832604169965,-0.02061099731314421,0.016859063430326157,0.05713266263970514,0.4401460176648361,1.9705682691681303
3.5999437632517255,1.4027474175230412,6.28696526680967,-0.02061099731314421,0.016859063430326157,0.05713266263970514,0.43385882180723034,1.9614802840106604
3.5793327659385814,1.4196064809533673,6.344097929449375,-0.02061099731314421,0.016859063430326157,0.05713266263970514,0.44219904612977823,1.9652961032203073
3.5587217686254373,1.4364655443836933,6.40123059208908,-0.02061099731314421,0.016859063430326157,0.05713266263970514,0.43767671794597524,1.9783333361761593
3.5381107713122932,1.4533246078140194,6.458363254728785,-0.02061099731314421,0.016859063430326157,0.05713266263970514,0.4448844526963445,1.9638591335555828
3.517499773999149,1.4701836712443455,6.51549591736849,-0.02061099731314421,0.016859063430326157,0.05713266263970514,0.4403866395901646,1.9680088128027418
3.496888776686005,1.4870427346746715,6.572628580008195,-0.02061099731314421,0.016859063430326157,0.05713266263970514,0.4351237469295651,1.9639051574512214
3.476277779372861,1.5039017981049976,6.6297612426479,-0.02061099731314421,0.016859063430326157,0.05713266263970514,0.4338667970544069,1.9561695933693595
3.455666782059717,1.5207608615353236,6.686893905287605,-0.02061099731314421,0.016859063430326157,0.05713266263970514,0.4381283580683256,1.956503271758825
3.435055784746573,1.5376199249656497,6.74402656792731,-0.02061099731314421,0.016859063430326157,0.05713266263970514,0.4353524827666213,1.9593243255423776
3.4144447874334287,1.5544789883959758,6.801159230567015,-0.02061099731314421,0.016859063430326157,0.05713266263970514,0.4400449281658941,1.969215706217191
3.3938337901202846,1.5713380518263018,6.8582918932067205,-0.02061099731314421,0.016859063430326157,0.05713266263970514,0.43898666931570524,1.9627592211891323
3.3732227928071405,1.5881971152566279,6.915424555846426,-0.02061099731314421,0.016859063430326157,0.05713266263970514,0.4432506651342286,1.976592965738016
3.3526117954939965,1.605056178686954,6.972557218486131,-0.02061099731314421,0.016859063430326157,0.05713266263970514,0.44254377929295785,1.9739253450971985
3.3320007981808524,1.62191524211728,7.029689881125836,-0.02061099731314421,0.016859063430326157,0.05713266263970514,0.4447883844836819,1.9776666434540773
3.3113898008677083,1.638774305547606,7.086822543765541,-0.02061099731314421,0.016859063430326157,0.05713266263970514,0.43780212299044813,1.973207302531963
3.290778803554564,1.6556333689779321,7.143955206405246,-0.02061099731314421,0.016859063430326157,0.05713266263970514,0.4365199026107275,1.9749486055561498
3.27016780624142,1.6724924324082582,7.201087869044951,-0.02061099731314421,0.016859063430326157,0.05713266263970514,0.4312921518395599,1.9799232813311112
3.249556808928276,1.6893514958385842,7.258220531684656,-0.02061099731314421,0.016859063430326157,0.05713266263970514,0.4305171636074445,1.9907778478328906
3.228945811615132,1.7062105592689103,7.315353194324361,-0.02061099731314421,0.016859063430326157,0.05713266263970514,0.4214334071590439,1.9986516076143575
3.208334814301988,1.7230696226992364,7.372485856964066,-0.02061099731314421,0.016859063430326157,0.05713266263970514,0.4242561109577515,2.0041246976515974
3.1877238169888438,1.7399286861295624,7.429618519603771,-0.02061099731314421,0.016859063430326157,0.05713266263970514,0.4202503538181202,2.0144909261786044
3.1671128196756997,1.7567877495598885,7.486751182243476,-0.02061099731314421,0.016859063430326157,0.05713266263970514,0.42494483567411817,2.022515714820771
3.1465018223625556,1.7736468129902145,7.543883844883181,-0.02061099731314421,0.016859063430326157,0.05713266263970514,0.4243051800996695,2.027979708059829
3.1258908250494115,1.7905058764205406,7.601016507522886,-0.02061099731314421,0.016859063430326157,0.05713266263970514,0.4193555987269132,2.025022729806337
3.1052798277362674,1.8073649398508667,7.6581491701625914,-0.02061099731314421,0.016859063430326157,0.05713266263970514,0.4213113616763109,2.037265118185383
3.0846688304231233,1.8242240032811927,7.7152818328022965,-0.02061099731314421,0.016859063430326157,0.05713266263970514,0.42209647534227956,2.0397610734615115
3.0640578331099793,1.8410830667115188,7.772414495442002,-0.02061099731314421,0.016859063430326157,0.05713266263970514,0.4284916246490742,2.039342195278152
3.043446835796835,1.8579421301418448,7.829547158081707,-0.02061099731314421,0.016859063430326157,0.05713266263970514,0.4228910498411017,2.043043248916133
3.022835838483691,1.874801193572171,7.886679820721412,-0.02061099731314421,0.016859063430326157,0.05713266263970514,0.40846843831373386,2.0429745834057242
3.002224841170547,1.891660257002497,7.943812483361117,-0.02061099731314421,0.016859063430326157,0.05713266263970514,0.4078761063632436,2.041037710112141
2.981613843857403,1.908519320432823,8.000945146000822,-0.02061099731314421,0.016859063430326157,0.05713266263970514,0.41033318738352964,2.0417677784271215
2.961002846544259,1.925378383863149,8.058077808640528,-0.02061099731314421,0.016859063430326157,0.05713266263970514,0.4053465383643903,2.03666803468774
2.9403918492311147,1.9422374472934751,8.115210471280234,-0.02061099731314421,0.016859063430326157,0.05713266263970514,0.40079301410260765,2.025025870383257
2.9197808519179707,1.9590965107238012,8.17234313391994,-0.02061099731314421,0.016859063430326157,0.05713266263970514,0.4056471111065063,2.0347868873245214
2.8991698546048266,1.9759555741541273,8.229475796559646,-0.02061099731314421,0.016859063430326157,0.05713266263970514,0.4014873006498217,2.041470945352558
2.8785588572916825,1.9928146375844533,8.286608459199352,-0.02061099731314421,0.016859063430326157,0.05713266263970514,0.4019451340543645,2.0479124869440426
2.8579478599785384,2.0096737010147794,8.343741121839058,-0.02061099731314421,0.016859063430326157,0.05713266263970514,0.39849283672858477,2.02723180838828
2.8373368626653943,2.0265327644451054,8.400873784478764,-0.02061099731314421,0.016859063430326157,0.05713266263970514,0.39648560814505085,2.0359793876188057
2.8167258653522502,2.0433918278754315,8.45800644711847,-0.02061099731314421,0.016859063430326157,0.05713266263970514,0.39279208996942633,2.024175460202016
2.8659560236972403,2.0396598984085306,8.476451507866022,0.04923015834499003,-0.003731929466900825,0.018445060747552217,0.38450999778675915,2.0339470967046025
2.9151861820422305,2.0359279689416296,8.494896568613575,0.04923015834499003,-0.003731929466900825,0.018445060747552217,0.3834777227737961,2.043172981078097
2.9644163403872206,2.0321960394747287,8.513341629361127,0.04923015834499003,-0.003731929466900825,0.018445060747552217,0.38284161608259004,2.0465501588634663
3.0136464987322107,2.028464110007828,8.53178669010868,0.04923015834499003,-0.003731929466900825,0.018445060747552217,0.3807222473563224,2.0466915634576948
3.062876657077201,2.024732180540927,8.550231750856232,0.04923015834499003,-0.003731929466900825,0.018445060747552217,0.3758951994611542,2.0440815456639405
3.112106815422191,2.021000251074026,8.568676811603785,0.04923015834499003,-0.003731929466900825,0.018445060747552217,0.3670924776808873,2.0470653378811106
3.161336973767181,2.017268321607125,8.587121872351338,0.04923015834499003,-0.003731929466900825,0.018445060747552217,0.36563277762992774,2.050326371923973
3.210567132112171,2.013536392140224,8.60556693309889,0.04923015834499003,-0.003731929466900825,0.018445060747552217,0.3678610653715208,2.0418067991474325
3.2597972904571613,2.009804462673323,8.624011993846443,0.04923015834499003,-0.003731929466900825,0.018445060747552217,0.36186751947643386,2.0471773548296266
3.3090274488021514,2.006072533206422,8.642457054593995,0.04923015834499003,-0.003731929466900825,0.018445060747552217,0.3557550277802346,2.041426034189255
3.2980517190876557,2.002626055007601,8.603235927470868,-0.010975729714495742,-0.0034464781988211603,-0.03922112712312789,0.3683065019119063,2.039414191825739
3.28707598937316,1.9991795768087797,8.56401480034774,-0.010975729714495742,-0.0034464781988211603,-0.03922112712312789,0.36392656492364994,2.041621198128001
3.2761002596586644,1.9957330986099584,8.524793673224613,-0.010975729714495742,-0.0034464781988211603,-0.03922112712312789,0.3662231486682907,2.035418730880226
3.2651245299441687,1.9922866204111371,8.485572546101485,-0.010975729714495742,-0.0034464781988211603,-0.03922112712312789,0.36517487398104387,2.0408145825247312
3.254148800229673,1.9888401422123159,8.446351418978358,-0.010975729714495742,-0.0034464781988211603,-0.03922112712312789,0.3610333346930343,2.0420585166022893
3.2431730705151773,1.9853936640134946,8.40713029185523,-0.010975729714495742,-0.0034464781988211603,-0.03922112712312789,0.3590732945174054,2.028170191765465
3.2321973408006817,1.9819471858146733,8.367909164732103,-0.010975729714495742,-0.0034464781988211603,-0.03922112712312789,0.35730453414339436,2.022547283552378
3.221221611086186,1.978500707615852,8.328688037608975,-0.010975729714495742,-0.0034464781988211603,-0.03922112712312789,0.3518172998307416,2.020419800808723
3.2102458813716903,1.9750542294170308,8.289466910485848,-0.010975729714495742,-0.0034464781988211603,-0.03922112712312789,0.3495749561261345,1.9972023362572502
3.1992701516571946,1.9716077512182095,8.25024578336272,-0.010975729714495742,-0.0034464781988211603,-0.03922112712312789,0.3519400993454523,2.001505473118045
3.188294421942699,1.9681612730193883,8.211024656239593,-0.010975729714495742,-0.0034464781988211603,-0.03922112712312789,0.3455261620425105,1.994178611844713
3.1773186922282033,1.964714794820567,8.171803529116465,-0.010975729714495742,-0.0034464781988211603,-0.03922112712312789,0.3435518394460787,1.986570822029075
3.1663429625137076,1.9612683166217457,8.132582401993337,-0.010975729714495742,-0.0034464781988211603,-0.03922112712312789,0.3373030521340957,1.9711547884406653
3.155367232799212,1.9578218384229245,8.09336127487021,-0.010975729714495742,-0.0034464781988211603,-0.03922112712312789,0.33555241273070424,1.9618196887775052
3.1443915030847163,1.9543753602241032,8.054140147747082,-0.010975729714495742,-0.0034464781988211603,-0.03922112712312789,0.336704170256892,1.9669566936583611
3.1334157733702206,1.950928882025282,8.014919020623955,-0.010975729714495742,-0.0034464781988211603,-0.03922112712312789,0.3364252977048558,1.9789528714738758
3.122440043655725,1.9474824038264607,7.975697893500827,-0.010975729714495742,-0.0034464781988211603,-0.03922112712312789,0.33604905767667015,1.9911026689502662
3.1114643139412292,1.9440359256276394,7.9364767663777,-0.010975729714495742,-0.0034464781988211603,-0.03922112712312789,0.3378989031866536,2.0080724118376128
3.1004885842267336,1.9405894474288181,7.897255639254572,-0.010975729714495742,-0.0034464781988211603,-0.03922112712312789,0.3364963927832665,1.9951572289355133
3.089512854512238,1.9371429692299968,7.858034512131445,-0.010975729714495742,-0.0034464781988211603,-0.03922112712312789,0.34462549460903824,2.0116971133544856
3.078537124797742,1.9336964910311756,7.818813385008317,-0.010975729714495742,-0.0034464781988211603,-0.03922112712312789,0.33424255286142474,2.009666666463908
3.0709402189879027,1.9310440335853991,7.828967041853672,-0.0075969058098395905,-0.0026524574457765042,0.010153656845355033,0.3300150480900701,1.9956327719560911
3.063343313178063,1.9283915761396226,7.839120698699027,-0.0075969058098395905,-0.0026524574457765042,0.010153656845355033,0.334248036379084,1.9870648872776413
3.0557464073682237,1.9257391186938462,7.849274355544382,-0.0075969058098395905,-0.0026524574457765042,0.010153656845355033,0.3289957354400517,1.9824989421629489
3.048149501558384,1.9230866612480697,7.859428012389737,-0.0075969058098395905,-0.0026524574457765042,0.010153656845355033,0.3279253505734741,1.9768157974459812
3.0405525957485446,1.9204342038022932,7.8695816692350915,-0.0075969058098395905,-0.0026524574457765042,0.010153656845355033,0.32359963120040125,1.984980246360634
3.032955689938705,1.9177817463565168,7.879735326080446,-0.0075969058098395905,-0.0026524574457765042,0.010153656845355033,0.3196610293740886,1.9820906693162232
3.0253587841288656,1.9151292889107403,7.889888982925801,-0.0075969058098395905,-0.0026524574457765042,0.010153656845355033,0.3262575347192292,1.9742733970301376
3.017761878319026,1.9124768314649638,7.900042639771156,-0.0075969058098395905,-0.0026524574457765042,0.010153656845355033,0.32722533830102624,1.9690037812210996
3.0101649725091866,1.9098243740191874,7.910196296616511,-0.0075969058098395905,-0.0026524574457765042,0.010153656845355033,0.3241762337217755,1.9734727351173935
3.002568066699347,1.907171916573411,7.920349953461866,-0.0075969058098395905,-0.0026524574457765042,0.010153656845355033,0.32602584156479997,1.9671174191613023
2.9949711608895075,1.9045194591276344,7.930503610307221,-0.0075969058098395905,-0.0026524574457765042,0.010153656845355033,0.3145453860780574,1.9912196452291986
2.987374255079668,1.901867001681858,7.9406572671525755,-0.0075969058098395905,-0.0026524574457765042,0.010153656845355033,0.315321499734992,1.9862544381527154
2.9797773492698285,1.8992145442360815,7.95081092399793,-0.0075969058098395905,-0.0026524574457765042,0.010153656845355033,0.31437096805070724,1.9988502958782195
2.972180443459989,1.896562086790305,7.960964580843285,-0.0075969058098395905,-0.0026524574457765042,0.010153656845355033,0.3153495602470863,1.9905225665177573
2.9645835376501495,1.8939096293445286,7.97111823768864,-0.0075969058098395905,-0.0026524574457765042,0.010153656845355033,0.30989362343931187,1.9903417528973333
2.95698663184031,1.891257171898752,7.981271894533995,-0.0075969058098395905,-0.0026524574457765042,0.010153656845355033,0.30965390346909777,1.9911843605991888
2.9493897260304704,1.8886047144529756,7.99142555137935,-0.0075969058098395905,-0.0026524574457765042,0.010153656845355033,0.3162118004009468,1.9878931793535897
2.941792820220631,1.8859522570071992,8.001579208224705,-0.0075969058098395905,-0.0026524574457765042,0.010153656845355033,0.3144259638974071,1.9809749963185015
2.9341959144107914,1.8832997995614227,8.01173286507006,-0.0075969058098395905,-0.0026524574457765042,0.010153656845355033,0.3088741071158388,1.9836853770749148
2.926599008600952,1.8806473421156462,8.021886521915416,-0.0075969058098395905,-0.0026524574457765042,0.010153656845355033,0.305777486341028,1.9814467199094672
2.9190021027911124,1.8779948846698697,8.032040178760772,-0.0075969058098395905,-0.0026524574457765042,0.010153656845355033,0.31667558436775745,1.9679065614313112
2.911405196981273,1.8753424272240933,8.042193835606128,-0.0075969058098395905,-0.0026524574457765042,0.010153656845355033,0.3217768789360242,1.9484077697045206
2.9038082911714334,1.8726899697783168,8.052347492451483,-0.0075969058098395905,-0.0026524574457765042,0.010153656845355033,0.31687665544238475,1.9583897802275962
2.896211385361594,1.8700375123325403,8.062501149296839,-0.0075969058098395905,-0.0026524574457765042,0.010153656845355033,0.3237773324356381,1.9416386917831452
2.8886144795517543,1.8673850548867639,8.072654806142195,-0.0075969058098395905,-0.0026524574457765042,0.010153656845355033,0.31504721624462556,1.9431469546625315
2.881017573741915,1.8647325974409874,8.08280846298755,-0.0075969058098395905,-0.0026524574457765042,0.010153656845355033,0.3104334026358436,1.9458362770397242
2.8734206679320753,1.862080139995211,8.092962119832906,-0.0075969058098395905,-0.0026524574457765042,0.010153656845355033,0.3084473508179502,1.939940994764767
2.8658237621222358,1.8594276825494345,8.103115776678262,-0.0075969058098395905,-0.0026524574457765042,0.010153656845355033,0.3127248639330166,1.9269073371498278
2.8582268563123963,1.856775225103658,8.113269433523618,-0.0075969058098395905,-0.0026524574457765042,0.010153656845355033,0.3154249920845413,1.912775245877868
2.8506299505025567,1.8541227676578815,8.123423090368973,-0.0075969058098395905,-0.0026524574457765042,0.010153656845355033,0.3122037927988498,1.9359828255679985
2.8430330446927172,1.851470310212105,8.13357674721433,-0.0075969058098395905,-0.0026524574457765042,0.010153656845355033,0.31812222384302064,1.922498686331193
2.8354361388828777,1.8488178527663286,8.143730404059685,-0.0075969058098395905,-0.0026524574457765042,0.010153656845355033,0.3177594057263515,1.9224476906586307
2.827839233073038,1.8461653953205521,8.15388406090504,-0.0075969058098395905,-0.0026524574457765042,0.010153656845355033,0.319977191782855,1.9205909131587535
2.8202423272631987,1.8435129378747757,8.164037717750396,-0.0075969058098395905,-0.0026524574457765042,0.010153656845355033,0.32248653299888463,1.9212786347024726
2.812645421453359,1.8408604804289992,8.174191374595752,-0.0075969058098395905,-0.0026524574457765042,0.010153656845355033,0.31816522673589626,1.9176265640318964
2.8050485156435196,1.8382080229832227,8.184345031441108,-0.0075969058098395905,-0.0026524574457765042,0.010153656845355033,0.3197809337728272,1.9359316013033983
2.79745160983368,1.8355555655374463,8.194498688286464,-0.0075969058098395905,-0.0026524574457765042,0.010153656845355033,0.3269452378632624,1.939413533885685
2.7898547040238406,1.8329031080916698,8.20465234513182,-0.0075969058098395905,-0.0026524574457765042,0.010153656845355033,0.3263657547357258,1.943957749975828
2.782257798214001,1.8302506506458933,8.214806001977175,-0.0075969058098395905,-0.0026524574457765042,0.010153656845355033,0.32709321983496803,1.953360592251786
2.7746608924041616,1.8275981932001168,8.22495965882253,-0.0075969058098395905,-0.0026524574457765042,0.010153656845355033,0.3325309953358581,1.9570453843404356
2.767063986594322,1.8249457357543404,8.235113315667887,-0.0075969058098395905,-0.0026524574457765042,0.010153656845355033,0.33891004625341886,1.9791006148739523
2.7594670807844826,1.822293278308564,8.245266972513242,-0.0075969058098395905,-0.0026524574457765042,0.010153656845355033,0.3404585980517508,1.9963172734357255
2.751870174974643,1.8196408208627874,8.255420629358598,-0.0075969058098395905,-0.0026524574457765042,0.010153656845355033,0.33991875844739117,2.0131653121660817
2.7442732691648035,1.816988363417011,8.265574286203954,-0.0075969058098395905,-0.0026524574457765042,0.010153656845355033,0.3342098829559983,2.0238812750904334
2.736676363354964,1.8143359059712345,8.27572794304931,-0.0075969058098395905,-0.0026524574457765042,0.010153656845355033,0.3374602673183485,2.0152858653220367
2.7290794575451245,1.811683448525458,8.285881599894665,-0.0075969058098395905,-0.0026524574457765042,0.010153656845355033,0.32955424333114225,2.009543958848934
2.721482551735285,1.8090309910796816,8.296035256740021,-0.0075969058098395905,-0.0026524574457765042,0.010153656845355033,0.333419679292209,2.0031377844535467
2.7138856459254455,1.806378533633905,8.306188913585377,-0.0075969058098395905,-0.0026524574457765042,0.010153656845355033,0.33175266858368435,2.009237459898907
2.706288740115606,1.8037260761881286,8.316342570430733,-0.0075969058098395905,-0.0026524574457765042,0.010153656845355033,0.32666079288851013,2.027642792354373
2.6986918343057664,1.8010736187423522,8.326496227276088,-0.0075969058098395905,-0.0026524574457765042,0.010153656845355033,0.3296957718049617,2.008581120186253
2.691094928495927,1.7984211612965757,8.336649884121444,-0.0075969058098395905,-0.0026524574457765042,0.010153656845355033,0.33089618822394123,2.0162702855643704
2.6834980226860874,1.7957687038507992,8.3468035409668,-0.0075969058098395905,-0.0026524574457765042,0.010153656845355033,0.32668866109503514,1.9931481219658085
2.675901116876248,1.7931162464050228,8.356957197812156,-0.0075969058098395905,-0.0026524574457765042,0.010153656845355033,0.3326142321396372,1.97931180789083
2.6683042110664084,1.7904637889592463,8.367110854657511,-0.0075969058098395905,-0.0026524574457765042,0.010153656845355033,0.3315346544967506,1.9775243173188697
2.660707305256569,1.7878113315134698,8.377264511502867,-0.0075969058098395905,-0.0026524574457765042,0.010153656845355033,0.326047898844934,1.9749535557672404
2.6531103994467293,1.7851588740676934,8.387418168348223,-0.0075969058098395905,-0.0026524574457765042,0.010153656845355033,0.3220498440543082,1.9575346826125206
2.64551349363689,1.782506416621917,8.397571825193578,-0.0075969058098395905,-0.0026524574457765042,0.010153656845355033,0.31640884845510403,1.9522942335102962
2.6379165878270503,1.7798539591761404,8.407725482038934,-0.0075969058098395905,-0.0026524574457765042,0.010153656845355033,0.31900578350993175,1.9544590652836449
2.630319682017211,1.777201501730364,8.41787913888429,-0.0075969058098395905,-0.0026524574457765042,0.010153656845355033,0.3187535731261663,1.9683459029557326
2.6227227762073713,1.7745490442845875,8.428032795729646,-0.0075969058098395905,-0.0026524574457765042,0.010153656845355033,0.3077860865339532,1.972862020943742
2.6151258703975317,1.771896586838811,8.438186452575001,-0.0075969058098395905,-0.0026524574457765042,0.010153656845355033,0.3035499577885739,1.9694185061677842
2.6075289645876922,1.7692441293930345,8.448340109420357,-0.0075969058098395905,-0.0026524574457765042,0.010153656845355033,0.3017140950368233,1.9846684224582563
2.5999320587778527,1.766591671947258,8.458493766265713,-0.0075969058098395905,-0.0026524574457765042,0.010153656845355033,0.2984397402194892,1.9897574526794644
2.592335152968013,1.7639392145014816,8.468647423111069,-0.0075969058098395905,-0.0026524574457765042,0.010153656845355033,0.29394990754711037,1.9891719414889086
2.5847382471581737,1.7612867570557051,8.478801079956424,-0.0075969058098395905,-0.0026524574457765042,0.010153656845355033,0.2991715150816121,1.9841713196726067
2.577141341348334,1.7586342996099287,8.48895473680178,-0.0075969058098395905,-0.0026524574457765042,0.010153656845355033,0.29759086854992617,1.9862865733743968
2.5695444355384947,1.7559818421641522,8.499108393647136,-0.0075969058098395905,-0.0026524574457765042,0.010153656845355033,0.2934609019390241,1.993027804270325
2.561947529728655,1.7533293847183757,8.509262050492492,-0.0075969058098395905,-0.0026524574457765042,0.010153656845355033,0.28903301188596736,1.98897763869732
2.5543506239188156,1.7506769272725993,8.519415707337847,-0.0075969058098395905,-0.0026524574457765042,0.010153656845355033,0.2882623987989926,2.003787916019887
2.546753718108976,1.7480244698268228,8.529569364183203,-0.0075969058098395905,-0.0026524574457765042,0.010153656845355033,0.28378840354634294,2.011821631995325
2.5391568122991366,1.7453720123810463,8.539723021028559,-0.0075969058098395905,-0.0026524574457765042,0.010153656845355033,0.2907849293140814,2.0138900039136223
2.531559906489297,1.7427195549352699,8.549876677873915,-0.0075969058098395905,-0.0026524574457765042,0.010153656845355033,0.29113608045694267,2.0047931938585557
2.5239630006794576,1.7400670974894934,8.56003033471927,-0.0075969058098395905,-0.0026524574457765042,0.010153656845355033,0.2940378005793972,2.0068929180428903
2.516366094869618,1.737414640043717,8.570183991564626,-0.0075969058098395905,-0.0026524574457765042,0.010153656845355033,0.30006041064301725,1.9992891520946956
2.5087691890597785,1.7347621825979405,8.580337648409982,-0.0075969058098395905,-0.0026524574457765042,0.010153656845355033,0.3011393792433373,1.9941609881091864
2.501172283249939,1.732109725152164,8.590491305255338,-0.0075969058098395905,-0.0026524574457765042,0.010153656845355033,0.3023998687648023,1.9777005192092874
2.4935753774400995,1.7294572677063875,8.600644962100693,-0.0075969058098395905,-0.0026524574457765042,0.010153656845355033,0.30837458380176425,1.9794066218487545
2.48597847163026,1.726804810260611,8.610798618946049,-0.0075969058098395905,-0.0026524574457765042,0.010153656845355033,0.30878113749446484,1.9730144269364682
2.4783815658204205,1.7241523528148346,8.620952275791405,-0.0075969058098395905,-0.0026524574457765042,0.010153656845355033,0.3091711101726478,1.9790620598879616
2.470784660010581,1.7214998953690581,8.63110593263676,-0.0075969058098395905,-0.0026524574457765042,0.010153656845355033,0.3055332302418109,1.9857916466220564
2.4631877542007414,1.7188474379232817,8.641259589482116,-0.0075969058098395905,-0.0026524574457765042,0.010153656845355033,0.3043210682045144,1.9909756815122788
2.455590848390902,1.7161949804775052,8.651413246327472,-0.0075969058098395905,-0.0026524574457765042,0.010153656845355033,0.2984212521868642,1.9841106970925662
2.4479939425810624,1.7135425230317287,8.661566903172828,-0.0075969058098395905,-0.0026524574457765042,0.010153656845355033,0.30415177123456694,1.9829981553764526
2.440397036771223,1.7108900655859522,8.671720560018183,-0.0075969058098395905,-0.0026524574457765042,0.010153656845355033,0.3060287902189731,1.9914250460998626
2.4328001309613834,1.7082376081401758,8.68187421686354,-0.0075969058098395905,-0.0026524574457765042,0.010153656845355033,0.3019650797143436,1.9929410387212982
2.425203225151544,1.7055851506943993,8.692027873708895,-0.0075969058098395905,-0.0026524574457765042,0.010153656845355033,0.2947917575278082,1.9904365175529966
2.4176063193417043,1.7029326932486228,8.70218153055425,-0.0075969058098395905,-0.0026524574457765042,0.010153656845355033,0.2950499668841512,1.992708327229827
2.410009413531865,1.7002802358028464,8.712335187399606,-0.0075969058098395905,-0.0026524574457765042,0.010153656845355033,0.2887784619960855,1.988209493835951
2.4024125077220253,1.69762777835707,8.722488844244962,-0.0075969058098395905,-0.0026524574457765042,0.010153656845355033,0.2888593981011286,2.0023773028937044
2.403691417568279,1.698512877886776,8.666339275555929,0.0012789098462537309,0.0008850995297060962,-0.056149568689032675,0.2806262868618806,2.0051072778443437
2.4049703274145324,1.699397977416482,8.610189706866896,0.0012789098462537309,0.0008850995297060962,-0.056149568689032675,0.292348008044718,1.9997332625649153
2.406249237260786,1.700283076946188,8.554040138177863,0.0012789098462537309,0.0008850995297060962,-0.056149568689032675,0.29257140279037236,2.006172610090951
2.4075281471070396,1.7011681764758941,8.49789056948883,0.0012789098462537309,0.0008850995297060962,-0.056149568689032675,0.30197324088857647,1.99844262404473
2.408807056953293,1.7020532760056002,8.441741000799796,0.0012789098462537309,0.0008850995297060962,-0.056149568689032675,0.29783747222083407,1.9860033018816765
2.4100859667995467,1.7029383755353062,8.385591432110763,0.0012789098462537309,0.0008850995297060962,-0.056149568689032675,0.29916724351571594,1.9822066076239073
2.4113648766458002,1.7038234750650123,8.32944186342173,0.0012789098462537309,0.0008850995297060962,-0.056149568689032675,0.2947558926430904,1.9786696751653825
2.412643786492054,1.7047085745947184,8.273292294732697,0.0012789098462537309,0.0008850995297060962,-0.056149568689032675,0.2999328160753781,1.9824707032319664
2.4139226963383074,1.7055936741244244,8.217142726043663,0.0012789098462537309,0.0008850995297060962,-0.056149568689032675,0.29337197478913674,1.9840510144833265
2.415201606184561,1.7064787736541305,8.16099315735463,0.0012789098462537309,0.0008850995297060962,-0.056149568689032675,0.29025705263789503,1.989706214564973
2.4164805160308145,1.7073638731838365,8.104843588665597,0.0012789098462537309,0.0008850995297060962,-0.056149568689032675,0.2873450760549617,2.00386917665915
2.417759425877068,1.7082489727135426,8.048694019976564,0.0012789098462537309,0.0008850995297060962,-0.056149568689032675,0.28138296625110565,2.004053107920922
2.4190383357233216,1.7091340722432486,7.992544451287531,0.0012789098462537309,0.0008850995297060962,-0.056149568689032675,0.2860971250116783,2.0088105208451834
2.420317245569575,1.7100191717729547,7.936394882598499,0.0012789098462537309,0.0008850995297060962,-0.056149568689032675,0.295083763656717,2.017614962611163
2.4215961554158287,1.7109042713026608,7.880245313909467,0.0012789098462537309,0.0008850995297060962,-0.056149568689032675,0.28911179150380933,2.0114048810645007
2.4228750652620823,1.7117893708323668,7.8240957452204345,0.0012789098462537309,0.0008850995297060962,-0.056149568689032675,0.2904257992577762,2.0090826682997918
2.424153975108336,1.7126744703620729,7.767946176531402,0.0012789098462537309,0.0008850995297060962,-0.056149568689032675,0.2881745729449036,2.0095830068300367
2.4254328849545894,1.713559569891779,7.71179660784237,0.0012789098462537309,0.0008850995297060962,-0.056149568689032675,0.2836888557722016,1.9908710953633995
2.426711794800843,1.714444669421485,7.6556470391533376,0.0012789098462537309,0.0008850995297060962,-0.056149568689032675,0.28134437062861967,1.993704023667517
2.4279907046470965,1.715329768951191,7.599497470464305,0.0012789098462537309,0.0008850995297060962,-0.056149568689032675,0.2887042224944881,2.0173486218482983
2.42926961449335,1.716214868480897,7.543347901775273,0.0012789098462537309,0.0008850995297060962,-0.056149568689032675,0.28764203004226657,2.0085225327889518
2.4305485243396037,1.7170999680106032,7.487198333086241,0.0012789098462537309,0.0008850995297060962,-0.056149568689032675,0.2839953926972967,1.9915645351989246
2.4318274341858572,1.7179850675403092,7.431048764397208,0.0012789098462537309,0.0008850995297060962,-0.056149568689032675,0.2904307554727205,1.9950544877225138
2.433106344032111,1.7188701670700153,7.374899195708176,0.0012789098462537309,0.0008850995297060962,-0.056149568689032675,0.2909514442174925,1.9791368664678513
2.4343852538783644,1.7197552665997213,7.318749627019144,0.0012789098462537309,0.0008850995297060962,-0.056149568689032675,0.2962304725309851,1.978637694119325
2.435664163724618,1.7206403661294274,7.262600058330111,0.0012789098462537309,0.0008850995297060962,-0.056149568689032675,0.2942358649812079,1.983259787763476
2.4369430735708715,1.7215254656591334,7.206450489641079,0.0012789098462537309,0.0008850995297060962,-0.056149568689032675,0.29662579146310153,1.9897156300940517
2.438221983417125,1.7224105651888395,7.150300920952047,0.0012789098462537309,0.0008850995297060962,-0.056149568689032675,0.2981607364583035,2.0021288757581734
2.4395008932633786,1.7232956647185456,7.094151352263014,0.0012789098462537309,0.0008850995297060962,-0.056149568689032675,0.29262099314947115,2.0171030804289853
2.440779803109632,1.7241807642482516,7.038001783573982,0.0012789098462537309,0.0008850995297060962,-0.056149568689032675,0.2948218742362046,2.012818052979106
2.4420587129558857,1.7250658637779577,6.98185221488495,0.0012789098462537309,0.0008850995297060962,-0.056149568689032675,0.2947497433537384,2.0048325687839137
2.4433376228021393,1.7259509633076637,6.9257026461959175,0.0012789098462537309,0.0008850995297060962,-0.056149568689032675,0.29134052106930886,1.9827988676307347
2.444616532648393,1.7268360628373698,6.869553077506885,0.0012789098462537309,0.0008850995297060962,-0.056149568689032675,0.2889482403883779,1.9878250237084525
2.4458954424946464,1.7277211623670758,6.813403508817853,0.0012789098462537309,0.0008850995297060962,-0.056149568689032675,0.2879842799438019,1.9908565857218905
2.4471743523409,1.728606261896782,6.7572539401288205,0.0012789098462537309,0.0008850995297060962,-0.056149568689032675,0.29155497169857925,1.968577979345298
2.4484532621871535,1.729491361426488,6.701104371439788,0.0012789098462537309,0.0008850995297060962,-0.056149568689032675,0.28370466175709796,1.9659308040527725
2.449732172033407,1.730376460956194,6.644954802750756,0.0012789098462537309,0.0008850995297060962,-0.056149568689032675,0.2849968010230541,1.958772520271202
2.4510110818796607,1.7312615604859,6.588805234061724,0.0012789098462537309,0.0008850995297060962,-0.056149568689032675,0.28981510073075906,1.9393095569759453
2.452289991725914,1.7321466600156061,6.532655665372691,0.0012789098462537309,0.0008850995297060962,-0.056149568689032675,0.2892416185499989,1.9354497716411034
2.453568901572168,1.7330317595453122,6.476506096683659,0.0012789098462537309,0.0008850995297060962,-0.056149568689032675,0.2916172934939103,1.9269266967955057
2.4548478114184213,1.7339168590750182,6.420356527994627,0.0012789098462537309,0.0008850995297060962,-0.056149568689032675,0.2980313268688044,1.9302801828612255
2.456126721264675,1.7348019586047243,6.364206959305594,0.0012789098462537309,0.0008850995297060962,-0.056149568689032675,0.2898982779112526,1.9137499562215303
2.4574056311109285,1.7356870581344304,6.308057390616562,0.0012789098462537309,0.0008850995297060962,-0.056149568689032675,0.28347193150355304,1.9081196755394096
2.458684540957182,1.7365721576641364,6.25190782192753,0.0012789098462537309,0.0008850995297060962,-0.056149568689032675,0.2801864852709454,1.9141114639475683
2.4599634508034356,1.7374572571938425,6.195758253238497,0.0012789098462537309,0.0008850995297060962,-0.056149568689032675,0.28217272761764106,1.913826448427323
2.461242360649689,1.7383423567235485,6.139608684549465,0.0012789098462537309,0.0008850995297060962,-0.056149568689032675,0.2811748416330353,1.9066756200715829
2.4625212704959427,1.7392274562532546,6.083459115860433,0.0012789098462537309,0.0008850995297060962,-0.056149568689032675,0.2839348330134561,1.8893858936269177
2.4638001803421963,1.7401125557829606,6.0273095471714,0.0012789098462537309,0.0008850995297060962,-0.056149568689032675,0.2881670212852352,1.8954036320656906
2.46507909018845,1.7409976553126667,5.971159978482368,0.0012789098462537309,0.0008850995297060962,-0.056149568689032675,0.28398640887559407,1.9008349702012597
2.4663580000347034,1.7418827548423728,5.915010409793336,0.0012789098462537309,0.0008850995297060962,-0.056149568689032675,0.2820236532128397,1.8919682827787947
2.467636909880957,1.7427678543720788,5.8588608411043035,0.0012789098462537309,0.0008850995297060962,-0.056149568689032675,0.2849900941137628,1.8904352800054756
2.4689158197272105,1.7436529539017849,5.802711272415271,0.0012789098462537309,0.0008850995297060962,-0.056149568689032675,0.27652496825120026,1.8918790459326413
2.470194729573464,1.744538053431491,5.746561703726239,0.0012789098462537309,0.0008850995297060962,-0.056149568689032675,0.2797382002485093,1.8812718124434096
2.4714736394197176,1.745423152961197,5.6904121350372066,0.0012789098462537309,0.0008850995297060962,-0.056149568689032675,0.28283069352087736,1.8791640392655011
2.472752549265971,1.746308252490903,5.634262566348174,0.0012789098462537309,0.0008850995297060962,-0.056149568689032675,0.2859056791192714,1.8824637603795562
2.4740314591122248,1.747193352020609,5.578112997659142,0.0012789098462537309,0.0008850995297060962,-0.056149568689032675,0.2779311666657892,1.8773019566749234
2.4753103689584783,1.7480784515503152,5.52196342897011,0.0012789098462537309,0.0008850995297060962,-0.056149568689032675,0.27222836069961687,1.8661674013753609
2.476589278804732,1.7489635510800212,5.465813860281077,0.0012789098462537309,0.0008850995297060962,-0.056149568689032675,0.2714463085229283,1.8624931949273238
2.4778681886509855,1.7498486506097273,5.409664291592045,0.0012789098462537309,0.0008850995297060962,-0.056149568689032675,0.2596065614454866,1.84231707497804
2.479147098497239,1.7507337501394333,5.353514722903013,0.0012789098462537309,0.0008850995297060962,-0.056149568689032675,0.2662293381021087,1.8594785267111062
2.4804260083434926,1.7516188496691394,5.29736515421398,0.0012789098462537309,0.0008850995297060962,-0.056149568689032675,0.26402994102616745,1.853831991281962
2.481704918189746,1.7525039491988454,5.241215585524948,0.0012789098462537309,0.0008850995297060962,-0.056149568689032675,0.25991361342206665,1.8531156309088745
2.4829838280359997,1.7533890487285515,5.185066016835916,0.0012789098462537309,0.0008850995297060962,-0.056149568689032675,0.2616061223667193,1.8405956377972774
2.4842627378822533,1.7542741482582576,5.128916448146883,0.0012789098462537309,0.0008850995297060962,-0.056149568689032675,0.26262390737449,1.83622929941115
2.485541647728507,1.7551592477879636,5.072766879457851,0.0012789098462537309,0.0008850995297060962,-0.056149568689032675,0.26868160057213425,1.8195649984804574
2.4868205575747604,1.7560443473176697,5.016617310768819,0.0012789098462537309,0.0008850995297060962,-0.056149568689032675,0.2667265911629999,1.8241660827936896
2.488099467421014,1.7569294468473757,4.9604677420797865,0.0012789098462537309,0.0008850995297060962,-0.056149568689032675,0.2630788282290269,1.811261347878442
2.4893783772672675,1.7578145463770818,4.904318173390754,0.0012789098462537309,0.0008850995297060962,-0.056149568689032675,0.26208856404724423,1.8020891874782947
2.490657287113521,1.7586996459067878,4.848168604701722,0.0012789098462537309,0.0008850995297060962,-0.056149568689032675,0.2582792370528058,1.7905103121775938
2.4919361969597746,1.759584745436494,4.7920190360126895,0.0012789098462537309,0.0008850995297060962,-0.056149568689032675,0.26589893623669386,1.7860567667404856
2.493215106806028,1.7604698449662,4.735869467323657,0.0012789098462537309,0.0008850995297060962,-0.056149568689032675,0.26046851249472225,1.7723804335559215
2.4944940166522818,1.761354944495906,4.679719898634625,0.0012789098462537309,0.0008850995297060962,-0.056149568689032675,0.258797859739389,1.7886280629344997
2.413323436670282,1.7644183057207024,4.689629173990761,-0.0811705799820001,0.0030633612247963054,0.009909275356136914,0.2589380953144145,1.789468571054875
2.332152856688282,1.7674816669454987,4.699538449346898,-0.0811705799820001,0.0030633612247963054,0.009909275356136914,0.25149001809719906,1.7860891169402147
2.250982276706282,1.770545028170295,4.709447724703034,-0.0811705799820001,0.0030633612247963054,0.009909275356136914,0.24964595669358655,1.8032157893078549
2.169811696724282,1.7736083893950914,4.719357000059171,-0.0811705799820001,0.0030633612247963054,0.009909275356136914,0.24964595669358655,1.8014372742434654
2.088641116742282,1.7766717506198877,4.729266275415307,-0.0811705799820001,0.0030633612247963054,0.009909275356136914,0.242708915814298,1.7884268794380618
2.007470536760282,1.779735111844684,4.739175550771444,-0.0811705799820001,0.0030633612247963054,0.009909275356136914,0.26238273220175756,1.7848825435940685
1.926299956778282,1.7827984730694804,4.74908482612758,-0.0811705799820001,0.0030633612247963054,0.009909275356136914,0.26238273220175756,1.762795330492441
1.8451293767962818,1.7858618342942767,4.758994101483717,-0.0811705799820001,0.0030633612247963054,0.009909275356136914,0.26238273220175756,1.7730357476961716
1.7639587968142816,1.788925195519073,4.768903376839853,-0.0811705799820001,0.0030633612247963054,0.009909275356136914,0.2581584180128053,1.7786090940627428
1.6827882168322814,1.7919885567438694,4.77881265219599,-0.0811705799820001,0.0030633612247963054,0.009909275356136914,0.2581584180128053,1.7740843928537622
1.6016176368502812,1.7950519179686657,4.7887219275521264,-0.0811705799820001,0.0030633612247963054,0.009909275356136914,0.2581584180128053,1.7829423670839808
1.520447056868281,1.798115279193462,4.798631202908263,-0.0811705799820001,0.0030633612247963054,0.009909275356136914,0.2581584180128053,1.7567205411037894
1.439276476886281,1.8011786404182584,4.8085404782643995,-0.0811705799820001,0.0030633612247963054,0.009909275356136914,0.2560256025941241,1.7575374172824698
1.3581058969042807,1.8042420016430547,4.818449753620536,-0.0811705799820001,0.0030633612247963054,0.009909275356136914,0.2560256025941241,1.7504720240824212
1.2769353169222806,1.807305362867851,4.8283590289766725,-0.0811705799820001,0.0030633612247963054,0.009909275356136914,0.2560256025941241,1.7537497091429473
1.1957647369402804,1.8103687240926474,4.838268304332809,-0.0811705799820001,0.0030633612247963054,0.009909275356136914,0.2560256025941241,1.7669716910995474
1.1145941569582802,1.8134320853174437,4.8481775796889455,-0.0811705799820001,0.0030633612247963054,0.009909275356136914,0.2560256025941241,1.767287586415121
1.03342357697628,1.81649544654224,4.858086855045082,-0.0811705799820001,0.0030633612247963054,0.009909275356136914,0.2560256025941241,1.7513256645198012
0.95225299699428,1.8195588077670364,4.8679961304012185,-0.0811705799820001,0.0030633612247963054,0.009909275356136914,0.2460832807924579,1.744425046713245
0.87108241701228,1.8226221689918327,4.877905405757355,-0.0811705799820001,0.0030633612247963054,0.009909275356136914,0.2460832807924579,1.7439992173982704
0.7899118370302799,1.825685530216629,4.8878146811134915,-0.0811705799820001,0.0030633612247963054,0.009909275356136914,0.2460832807924579,1.7464022172882647
0.7087412570482798,1.8287488914414254,4.897723956469628,-0.0811705799820001,0.0030633612247963054,0.009909275356136914,0.2460832807924579,1.7395388501852072
