theta,phi,z,dtheta,dphi,dz,ecg,eda
5.4879187904801805,1.4719639042263322,8.822750861925279,0.0,0.0,0.0,0.07284470312113298,0.020112742381370015
5.448810864141543,1.4763604034173683,8.888797062867432,-0.039107926338637765,0.004396499191036023,0.06604620094215441,0.07284470312113298,0.020112742381370015
5.409702937802906,1.4807569026084044,8.954843263809586,-0.039107926338637765,0.004396499191036023,0.06604620094215441,0.07284470312113298,0.020112742381370015
5.370595011464268,1.4851534017994406,9.02088946475174,-0.039107926338637765,0.004396499191036023,0.06604620094215441,0.07284470312113298,0.020112742381370015
5.331487085125631,1.4895499009904767,9.086935665693893,-0.039107926338637765,0.004396499191036023,0.06604620094215441,0.07284470312113298,0.020112742381370015
5.292379158786994,1.4939464001815128,9.152981866636047,-0.039107926338637765,0.004396499191036023,0.06604620094215441,0.07284470312113298,0.020112742381370015
5.253271232448356,1.498342899372549,9.2190280675782,-0.039107926338637765,0.004396499191036023,0.06604620094215441,0.08051370903772082,0.020112742381370015
5.214163306109719,1.502739398563585,9.285074268520354,-0.039107926338637765,0.004396499191036023,0.06604620094215441,0.08051370903772082,0.020112742381370015
5.175055379771082,1.5071358977546212,9.351120469462508,-0.039107926338637765,0.004396499191036023,0.06604620094215441,0.08051370903772082,0.020112742381370015
5.135947453432444,1.5115323969456573,9.417166670404661,-0.039107926338637765,0.004396499191036023,0.06604620094215441,0.08051370903772082,0.020112742381370015
5.096839527093807,1.5159288961366935,9.483212871346815,-0.039107926338637765,0.004396499191036023,0.06604620094215441,0.08051370903772082,0.020112742381370015
5.05773160075517,1.5203253953277296,9.549259072288969,-0.039107926338637765,0.004396499191036023,0.06604620094215441,0.08051370903772082,0.020112742381370015
5.018623674416532,1.5247218945187657,9.615305273231122,-0.039107926338637765,0.004396499191036023,0.06604620094215441,0.09208139275575895,0.020112742381370015
4.979515748077895,1.5291183937098018,9.681351474173276,-0.039107926338637765,0.004396499191036023,0.06604620094215441,0.09208139275575895,0.020112742381370015
4.9404078217392575,1.533514892900838,9.74739767511543,-0.039107926338637765,0.004396499191036023,0.06604620094215441,0.09208139275575895,0.020112742381370015
4.983870919164722,1.5349451659060842,9.717700835512876,0.04346309742546385,0.001430273005246272,-0.029696839602554224,0.09208139275575895,0.020112742381370015
5.027334016590186,1.5363754389113304,9.688003995910321,0.04346309742546385,0.001430273005246272,-0.029696839602554224,0.08532806291843546,0.020112742381370015
5.07079711401565,1.5378057119165767,9.658307156307767,0.04346309742546385,0.001430273005246272,-0.029696839602554224,0.08532806291843546,0.020112742381370015
5.114260211441114,1.539235984921823,9.628610316705213,0.04346309742546385,0.001430273005246272,-0.029696839602554224,0.08532806291843546,0.020112742381370015
5.157723308866578,1.5406662579270691,9.59891347710266,0.04346309742546385,0.001430273005246272,-0.029696839602554224,0.07564056709197611,0.020112742381370015
5.2011864062920425,1.5420965309323154,9.569216637500105,0.04346309742546385,0.001430273005246272,-0.029696839602554224,0.07564056709197611,0.020112742381370015
5.244649503717507,1.5435268039375616,9.539519797897551,0.04346309742546385,0.001430273005246272,-0.029696839602554224,0.06960376350064677,0.020112742381370015
5.288112601142971,1.5449570769428078,9.509822958294997,0.04346309742546385,0.001430273005246272,-0.029696839602554224,0.06960376350064677,0.020112742381370015
5.331575698568435,1.546387349948054,9.480126118692443,0.04346309742546385,0.001430273005246272,-0.029696839602554224,0.06960376350064677,0.020112742381370015
5.375038795993899,1.5478176229533003,9.450429279089889,0.04346309742546385,0.001430273005246272,-0.029696839602554224,0.06960376350064677,0.020112742381370015
5.418501893419363,1.5492478959585465,9.420732439487335,0.04346309742546385,0.001430273005246272,-0.029696839602554224,0.07891967182730444,0.020112742381370015
5.461964990844828,1.5506781689637927,9.39103559988478,0.04346309742546385,0.001430273005246272,-0.029696839602554224,0.07891967182730444,0.020112742381370015
5.505428088270292,1.552108441969039,9.361338760282226,0.04346309742546385,0.001430273005246272,-0.029696839602554224,0.07891967182730444,0.020112742381370015
5.548891185695756,1.5535387149742852,9.331641920679672,0.04346309742546385,0.001430273005246272,-0.029696839602554224,0.07891967182730444,0.020112742381370015
5.59235428312122,1.5549689879795314,9.301945081077118,0.04346309742546385,0.001430273005246272,-0.029696839602554224,0.07891967182730444,0.020112742381370015
5.635817380546684,1.5563992609847777,9.272248241474564,0.04346309742546385,0.001430273005246272,-0.029696839602554224,0.07891967182730444,0.020112742381370015
5.679280477972148,1.5578295339900239,9.24255140187201,0.04346309742546385,0.001430273005246272,-0.029696839602554224,0.07891967182730444,0.020112742381370015
5.722743575397613,1.5592598069952701,9.212854562269456,0.04346309742546385,0.001430273005246272,-0.029696839602554224,0.07983690788664985,0.020112742381370015
5.766206672823077,1.5606900800005163,9.183157722666902,0.04346309742546385,0.001430273005246272,-0.029696839602554224,0.07186561696653289,0.020112742381370015
5.809669770248541,1.5621203530057626,9.153460883064348,0.04346309742546385,0.001430273005246272,-0.029696839602554224,0.07186561696653289,0.020112742381370015
5.853132867674005,1.5635506260110088,9.123764043461794,0.04346309742546385,0.001430273005246272,-0.029696839602554224,0.06982327573138666,0.020112742381370015
5.896595965099469,1.564980899016255,9.09406720385924,0.04346309742546385,0.001430273005246272,-0.029696839602554224,0.06805561282438083,0.020112742381370015
5.940059062524933,1.5664111720215013,9.064370364256686,0.04346309742546385,0.001430273005246272,-0.029696839602554224,0.07411782706660286,0.020112742381370015
5.983522159950398,1.5678414450267475,9.034673524654131,0.04346309742546385,0.001430273005246272,-0.029696839602554224,0.06869051286484514,0.020112742381370015
6.026985257375862,1.5692717180319937,9.004976685051577,0.04346309742546385,0.001430273005246272,-0.029696839602554224,0.07668474137976897,0.020112742381370015
6.070448354801326,1.57070199103724,8.975279845449023,0.04346309742546385,0.001430273005246272,-0.029696839602554224,0.07668474137976897,0.020112742381370015
6.11391145222679,1.5721322640424862,8.94558300584647,0.04346309742546385,0.001430273005246272,-0.029696839602554224,0.07668474137976897,0.020112742381370015
6.157374549652254,1.5735625370477324,8.915886166243915,0.04346309742546385,0.001430273005246272,-0.029696839602554224,0.07668474137976897,0.020112742381370015
6.2008376470777185,1.5749928100529786,8.886189326641361,0.04346309742546385,0.001430273005246272,-0.029696839602554224,0.08072355825206073,0.020112742381370015
6.244300744503183,1.5764230830582249,8.856492487038807,0.04346309742546385,0.001430273005246272,-0.029696839602554224,0.08777601490690255,0.020112742381370015
6.287763841928647,1.577853356063471,8.826795647436253,0.04346309742546385,0.001430273005246272,-0.029696839602554224,0.08777601490690255,0.020112742381370015
6.331226939354111,1.5792836290687173,8.797098807833699,0.04346309742546385,0.001430273005246272,-0.029696839602554224,0.08777601490690255,0.020112742381370015
6.374690036779575,1.5807139020739636,8.767401968231145,0.04346309742546385,0.001430273005246272,-0.029696839602554224,0.07882405529709915,0.020112742381370015
6.418153134205039,1.5821441750792098,8.73770512862859,0.04346309742546385,0.001430273005246272,-0.029696839602554224,0.07882405529709915,0.020112742381370015
6.4616162316305035,1.583574448084456,8.708008289026036,0.04346309742546385,0.001430273005246272,-0.029696839602554224,0.08645995970583797,0.020112742381370015
6.505079329055968,1.5850047210897023,8.678311449423482,0.04346309742546385,0.001430273005246272,-0.029696839602554224,0.08107598755996838,0.020112742381370015
6.548542426481432,1.5864349940949485,8.648614609820928,0.04346309742546385,0.001430273005246272,-0.029696839602554224,0.08107598755996838,0.020112742381370015
6.592005523906896,1.5878652671001947,8.618917770218374,0.04346309742546385,0.001430273005246272,-0.029696839602554224,0.08198146711769957,0.020112742381370015
6.63546862133236,1.589295540105441,8.58922093061582,0.04346309742546385,0.001430273005246272,-0.029696839602554224,0.08198146711769957,0.020112742381370015
6.678931718757824,1.5907258131106872,8.559524091013266,0.04346309742546385,0.001430273005246272,-0.029696839602554224,0.08198146711769957,0.020112742381370015
6.7223948161832885,1.5921560861159334,8.529827251410712,0.04346309742546385,0.001430273005246272,-0.029696839602554224,0.08198146711769957,0.020112742381370015
6.765857913608753,1.5935863591211796,8.500130411808158,0.04346309742546385,0.001430273005246272,-0.029696839602554224,0.07453734040834646,0.020112742381370015
6.809321011034217,1.5950166321264259,8.470433572205604,0.04346309742546385,0.001430273005246272,-0.029696839602554224,0.0876128547302931,0.020112742381370015
6.852784108459681,1.596446905131672,8.44073673260305,0.04346309742546385,0.001430273005246272,-0.029696839602554224,0.0876128547302931,0.020112742381370015
6.896247205885145,1.5978771781369183,8.411039893000495,0.04346309742546385,0.001430273005246272,-0.029696839602554224,0.0800756494001533,0.020112742381370015
6.939710303310609,1.5993074511421645,8.381343053397941,0.04346309742546385,0.001430273005246272,-0.029696839602554224,0.0800756494001533,0.020112742381370015
6.9831734007360735,1.6007377241474108,8.351646213795387,0.04346309742546385,0.001430273005246272,-0.029696839602554224,0.07329261158300754,0.020502012412410935
7.026636498161538,1.602167997152657,8.321949374192833,0.04346309742546385,0.001430273005246272,-0.029696839602554224,0.06786452451635627,0.020973870039190334
7.070099595587002,1.6035982701579032,8.292252534590279,0.04346309742546385,0.001430273005246272,-0.029696839602554224,0.09401080199450967,0.02146902118777275
7.113562693012466,1.6050285431631495,8.262555694987725,0.04346309742546385,0.001430273005246272,-0.029696839602554224,0.09401080199450967,0.021988027066242994
7.15702579043793,1.6064588161683957,8.232858855385171,0.04346309742546385,0.001430273005246272,-0.029696839602554224,0.09401080199450967,0.022531448882685892
7.200488887863394,1.607889089173642,8.203162015782617,0.04346309742546385,0.001430273005246272,-0.029696839602554224,0.09401080199450967,0.02309984784518626
7.2439519852888585,1.6093193621788882,8.173465176180063,0.04346309742546385,0.001430273005246272,-0.029696839602554224,0.09401080199450967,0.023693785161828924
7.287415082714323,1.6107496351841344,8.143768336577509,0.04346309742546385,0.001430273005246272,-0.029696839602554224,0.09401080199450967,0.0243138220406987
7.330878180139787,1.6121799081893806,8.114071496974955,0.04346309742546385,0.001430273005246272,-0.029696839602554224,0.09401080199450967,0.02496051968988041
7.374341277565251,1.6136101811946268,8.0843746573724,0.04346309742546385,0.001430273005246272,-0.029696839602554224,0.08791665924072956,0.025634439317458874
7.417804374990715,1.615040454199873,8.054677817769846,0.04346309742546385,0.001430273005246272,-0.029696839602554224,0.08791665924072956,0.026336142131518914
7.461267472416179,1.6164707272051193,8.024980978167292,0.04346309742546385,0.001430273005246272,-0.029696839602554224,0.08791665924072956,0.02706618934014535
7.5047305698416436,1.6179010002103655,7.995284138564738,0.04346309742546385,0.001430273005246272,-0.029696839602554224,0.08666266821030867,0.027825142151423003
7.548193667267108,1.6193312732156118,7.965587298962184,0.04346309742546385,0.001430273005246272,-0.029696839602554224,0.08666266821030867,0.028613561773436696
7.591656764692572,1.620761546220858,7.93589045935963,0.04346309742546385,0.001430273005246272,-0.029696839602554224,0.08666266821030867,0.02943200941427124
7.635119862118036,1.6221918192261042,7.906193619757076,0.04346309742546385,0.001430273005246272,-0.029696839602554224,0.08666266821030867,0.030281046282011465
7.6785829595435,1.6236220922313505,7.876496780154522,0.04346309742546385,0.001430273005246272,-0.029696839602554224,0.08319003524992137,0.031161233584742185
7.722046056968964,1.6250523652365967,7.846799940551968,0.04346309742546385,0.001430273005246272,-0.029696839602554224,0.08351849505906006,0.03207313253054823
7.765509154394429,1.626482638241843,7.817103100949414,0.04346309742546385,0.001430273005246272,-0.029696839602554224,0.08522023567110161,0.03301730432751441
7.808972251819893,1.6279129112470891,7.7874062613468595,0.04346309742546385,0.001430273005246272,-0.029696839602554224,0.08734697417826796,0.03399431018372556
7.852435349245357,1.6293431842523354,7.7577094217443054,0.04346309742546385,0.001430273005246272,-0.029696839602554224,0.08418081764305292,0.035004711307266484
7.895898446670821,1.6307734572575816,7.728012582141751,0.04346309742546385,0.001430273005246272,-0.029696839602554224,0.08737221932358046,0.03604906890622201
7.939361544096285,1.6322037302628278,7.698315742539197,0.04346309742546385,0.001430273005246272,-0.029696839602554224,0.10534149197825321,0.03712794418867696
7.970506778070656,1.633088823528046,7.6722724813051135,0.031145233974371314,0.0008850932652181457,-0.026043261234083435,0.10534149197825321,0.038241898362716145
8.001652012045028,1.6339739167932643,7.64622922007103,0.031145233974371314,0.0008850932652181457,-0.026043261234083435,0.10534149197825321,0.0393914926364244
8.032797246019399,1.6348590100584826,7.620185958836946,0.031145233974371314,0.0008850932652181457,-0.026043261234083435,0.10534149197825321,0.04057728821788654
8.06394247999377,1.6357441033237008,7.594142697602862,0.031145233974371314,0.0008850932652181457,-0.026043261234083435,0.1005401763504675,0.04179984631518738
8.095087713968141,1.636629196588919,7.568099436368779,0.031145233974371314,0.0008850932652181457,-0.026043261234083435,0.10198467873229194,0.043059728136411755
8.126232947942512,1.6375142898541373,7.542056175134695,0.031145233974371314,0.0008850932652181457,-0.026043261234083435,0.10198467873229194,0.044357494889644467
8.157378181916883,1.6383993831193555,7.516012913900611,0.031145233974371314,0.0008850932652181457,-0.026043261234083435,0.10157113722098655,0.04569370778297034
8.188523415891254,1.6392844763845738,7.489969652666527,0.031145233974371314,0.0008850932652181457,-0.026043261234083435,0.10680713165941062,0.04706892802447421
8.219668649865625,1.640169569649792,7.463926391432444,0.031145233974371314,0.0008850932652181457,-0.026043261234083435,0.10680713165941062,0.04848371682224088
8.250813883839996,1.6410546629150102,7.43788313019836,0.031145233974371314,0.0008850932652181457,-0.026043261234083435,0.10680713165941062,0.04993863538435519
8.281959117814367,1.6419397561802285,7.411839868964276,0.031145233974371314,0.0008850932652181457,-0.026043261234083435,0.10680713165941062,0.05143424491890193
8.313104351788738,1.6428248494454467,7.385796607730192,0.031145233974371314,0.0008850932652181457,-0.026043261234083435,0.10254765543043166,0.05297110663396595
8.344249585763109,1.643709942710665,7.359753346496109,0.031145233974371314,0.0008850932652181457,-0.026043261234083435,0.09716511212060315,0.05454978173763206
8.37539481973748,1.6445950359758832,7.333710085262025,0.031145233974371314,0.0008850932652181457,-0.026043261234083435,0.10410825489281256,0.056170831437985076
8.40654005371185,1.6454801292411014,7.307666824027941,0.031145233974371314,0.0008850932652181457,-0.026043261234083435,0.11165983333590682,0.05783481694310983
8.437685287686222,1.6463652225063197,7.2816235627938575,0.031145233974371314,0.0008850932652181457,-0.026043261234083435,0.11165983333590682,0.05932986380196352
8.468830521660593,1.647250315771538,7.255580301559774,0.031145233974371314,0.0008850932652181457,-0.026043261234083435,0.11165983333590682,0.06085874175891815
8.499975755634964,1.6481354090367561,7.22953704032569,0.031145233974371314,0.0008850932652181457,-0.026043261234083435,0.11165983333590682,0.062421829325684644
8.531120989609335,1.6490205023019744,7.203493779091606,0.031145233974371314,0.0008850932652181457,-0.026043261234083435,0.11283561702741092,0.0640195050139739
8.562266223583705,1.6499055955671926,7.1774505178575225,0.031145233974371314,0.0008850932652181457,-0.026043261234083435,0.11283561702741092,0.0656521473354969
8.593411457558076,1.6507906888324109,7.151407256623439,0.031145233974371314,0.0008850932652181457,-0.026043261234083435,0.11537385940850493,0.06732013480196454
8.624556691532447,1.651675782097629,7.125363995389355,0.031145233974371314,0.0008850932652181457,-0.026043261234083435,0.11323750504185613,0.06902384592508776
8.655701925506818,1.6525608753628473,7.099320734155271,0.031145233974371314,0.0008850932652181457,-0.026043261234083435,0.11006208279178625,0.07076365921657747
8.68684715948119,1.6534459686280656,7.073277472921188,0.031145233974371314,0.0008850932652181457,-0.026043261234083435,0.11092102995079962,0.07253995318814464
8.71799239345556,1.6543310618932838,7.047234211687104,0.031145233974371314,0.0008850932652181457,-0.026043261234083435,0.1086264079413238,0.07435310635150016
8.749137627429931,1.655216155158502,7.02119095045302,0.031145233974371314,0.0008850932652181457,-0.026043261234083435,0.11723632396104575,0.07620349721835498
8.780282861404302,1.6561012484237203,6.995147689218936,0.031145233974371314,0.0008850932652181457,-0.026043261234083435,0.11643328932342499,0.07809150430042001
8.811428095378673,1.6569863416889385,6.969104427984853,0.031145233974371314,0.0008850932652181457,-0.026043261234083435,0.11643328932342499,0.08001750610940622
8.842573329353044,1.6578714349541568,6.943061166750769,0.031145233974371314,0.0008850932652181457,-0.026043261234083435,0.11643328932342499,0.08198188115702448
8.873718563327415,1.658756528219375,6.917017905516685,0.031145233974371314,0.0008850932652181457,-0.026043261234083435,0.1229528687524683,0.08398500795498579
8.904863797301786,1.6596416214845933,6.890974644282601,0.031145233974371314,0.0008850932652181457,-0.026043261234083435,0.1229528687524683,0.086027265015001
8.936009031276157,1.6605267147498115,6.864931383048518,0.031145233974371314,0.0008850932652181457,-0.026043261234083435,0.1229528687524683,0.0881090308487811
8.967154265250528,1.6614118080150297,6.838888121814434,0.031145233974371314,0.0008850932652181457,-0.026043261234083435,0.1229528687524683,0.090230683968037
8.998299499224899,1.662296901280248,6.81284486058035,0.031145233974371314,0.0008850932652181457,-0.026043261234083435,0.12014354392442582,0.09239260288447963
9.02944473319927,1.6631819945454662,6.7868015993462665,0.031145233974371314,0.0008850932652181457,-0.026043261234083435,0.1470488013942289,0.09459516610981991
9.060589967173641,1.6640670878106845,6.760758338112183,0.031145233974371314,0.0008850932652181457,-0.026043261234083435,0.1470488013942289,0.09683875215576879
9.091735201148012,1.6649521810759027,6.734715076878099,0.031145233974371314,0.0008850932652181457,-0.026043261234083435,0.1470488013942289,0.09912373953403718
9.122880435122383,1.665837274341121,6.708671815644015,0.031145233974371314,0.0008850932652181457,-0.026043261234083435,0.1470488013942289,0.10145050675633602
9.154025669096754,1.6667223676063392,6.6826285544099315,0.031145233974371314,0.0008850932652181457,-0.026043261234083435,0.1470488013942289,0.10381943233437622
9.185170903071125,1.6676074608715574,6.656585293175848,0.031145233974371314,0.0008850932652181457,-0.026043261234083435,0.14012707835972507,0.10623089477986873
9.216316137045496,1.6684925541367757,6.630542031941764,0.031145233974371314,0.0008850932652181457,-0.026043261234083435,0.140667714431102,0.10868527260452449
9.247461371019867,1.669377647401994,6.60449877070768,0.031145233974371314,0.0008850932652181457,-0.026043261234083435,0.14510368699757026,0.1111829443200544
9.278606604994238,1.6702627406672121,6.578455509473597,0.031145233974371314,0.0008850932652181457,-0.026043261234083435,0.14510368699757026,0.1137242884381694
9.309751838968609,1.6711478339324304,6.552412248239513,0.031145233974371314,0.0008850932652181457,-0.026043261234083435,0.14510368699757026,0.11630968347058043
9.34089707294298,1.6720329271976486,6.526368987005429,0.031145233974371314,0.0008850932652181457,-0.026043261234083435,0.1359830092729214,0.11893950792899842
9.37204230691735,1.6729180204628669,6.500325725771345,0.031145233974371314,0.0008850932652181457,-0.026043261234083435,0.1420062920117069,0.12161414032513425
9.403187540891722,1.673803113728085,6.474282464537262,0.031145233974371314,0.0008850932652181457,-0.026043261234083435,0.1420062920117069,0.12433395917069893
9.434332774866093,1.6746882069933033,6.448239203303178,0.031145233974371314,0.0008850932652181457,-0.026043261234083435,0.137935780178887,0.12709934297740336
9.465478008840464,1.6755733002585216,6.422195942069094,0.031145233974371314,0.0008850932652181457,-0.026043261234083435,0.1385412292200631,0.1299106702569584
9.496623242814834,1.6764583935237398,6.39615268083501,0.031145233974371314,0.0008850932652181457,-0.026043261234083435,0.13017246332749338,0.13276831952107507
9.527768476789205,1.677343486788958,6.370109419600927,0.031145233974371314,0.0008850932652181457,-0.026043261234083435,0.13659712056122134,0.1356726692814643
9.558913710763576,1.6782285800541763,6.344066158366843,0.031145233974371314,0.0008850932652181457,-0.026043261234083435,0.14230059115678778,0.1386240980498369
9.590058944737947,1.6791136733193945,6.318022897132759,0.031145233974371314,0.0008850932652181457,-0.026043261234083435,0.13453160905893438,0.141622984337904
9.621204178712318,1.6799987665846128,6.2919796358986755,0.031145233974371314,0.0008850932652181457,-0.026043261234083435,0.15159104467565027,0.14466970665737633
9.65234941268669,1.680883859849831,6.265936374664592,0.031145233974371314,0.0008850932652181457,-0.026043261234083435,0.14422343198021204,0.14776464351996493
9.68349464666106,1.6817689531150493,6.239893113430508,0.031145233974371314,0.0008850932652181457,-0.026043261234083435,0.16883871609731382,0.15090817343738072
9.714639880635431,1.6826540463802675,6.213849852196424,0.031145233974371314,0.0008850932652181457,-0.026043261234083435,0.16883871609731382,0.15410067492133458
9.745785114609802,1.6835391396454857,6.1878065909623405,0.031145233974371314,0.0008850932652181457,-0.026043261234083435,0.17468394687593056,0.1573425264835375
9.776930348584173,1.684424232910704,6.161763329728257,0.031145233974371314,0.0008850932652181457,-0.026043261234083435,0.17468394687593056,0.16063410663570035
9.808075582558544,1.6853093261759222,6.135720068494173,0.031145233974371314,0.0008850932652181457,-0.026043261234083435,0.17468394687593056,0.16397579388953415
9.839220816532915,1.6861944194411405,6.109676807260089,0.031145233974371314,0.0008850932652181457,-0.026043261234083435,0.17468394687593056,0.1673679667567497
9.870366050507286,1.6870795127063587,6.083633546026006,0.031145233974371314,0.0008850932652181457,-0.026043261234083435,0.17468394687593056,0.17081100374905803
9.901511284481657,1.687964605971577,6.057590284791922,0.031145233974371314,0.0008850932652181457,-0.026043261234083435,0.1700128734315948,0.17430528337817006
9.932656518456028,1.6888496992367952,6.031547023557838,0.031145233974371314,0.0008850932652181457,-0.026043261234083435,0.1700128734315948,0.17785118415579668
9.963801752430399,1.6897347925020134,6.005503762323754,0.031145233974371314,0.0008850932652181457,-0.026043261234083435,0.1700128734315948,0.18144908459364884
9.99494698640477,1.6906198857672317,5.979460501089671,0.031145233974371314,0.0008850932652181457,-0.026043261234083435,0.1767544618055863,0.18509936320343745
10.026092220379141,1.69150497903245,5.953417239855587,0.031145233974371314,0.0008850932652181457,-0.026043261234083435,0.17540303360645237,0.18880239849687347
10.057237454353512,1.6923900722976681,5.927373978621503,0.031145233974371314,0.0008850932652181457,-0.026043261234083435,0.17540303360645237,0.1925585689856678
10.088382688327883,1.6932751655628864,5.901330717387419,0.031145233974371314,0.0008850932652181457,-0.026043261234083435,0.1748082058934589,0.19636825318153142
10.119527922302254,1.6941602588281046,5.875287456153336,0.031145233974371314,0.0008850932652181457,-0.026043261234083435,0.1748082058934589,0.2002318295961752
10.150673156276625,1.6950453520933229,5.849244194919252,0.031145233974371314,0.0008850932652181457,-0.026043261234083435,0.1748082058934589,0.2041496767413101
10.181818390250996,1.695930445358541,5.823200933685168,0.031145233974371314,0.0008850932652181457,-0.026043261234083435,0.1748082058934589,0.20812217312864703
10.212963624225367,1.6968155386237593,5.7971576724510845,0.031145233974371314,0.0008850932652181457,-0.026043261234083435,0.1748082058934589,0.21214969726989694
10.244108858199738,1.6977006318889776,5.771114411217001,0.031145233974371314,0.0008850932652181457,-0.026043261234083435,0.17198214828382113,0.21623262767677073
10.275254092174109,1.6985857251541958,5.745071149982917,0.031145233974371314,0.0008850932652181457,-0.026043261234083435,0.1650396462403579,0.2203713428609794
10.30639932614848,1.699470818419414,5.719027888748833,0.031145233974371314,0.0008850932652181457,-0.026043261234083435,0.1650396462403579,0.2245662213342338
10.33754456012285,1.7003559116846323,5.6929846275147495,0.031145233974371314,0.0008850932652181457,-0.026043261234083435,0.1582170068841745,0.2288176416082449
10.368689794097222,1.7012410049498505,5.666941366280666,0.031145233974371314,0.0008850932652181457,-0.026043261234083435,0.17763936147942186,0.23312598219472358
10.399835028071593,1.7021260982150688,5.640898105046582,0.031145233974371314,0.0008850932652181457,-0.026043261234083435,0.17763936147942186,0.23749162160538084
10.430980262045964,1.703011191480287,5.614854843812498,0.031145233974371314,0.0008850932652181457,-0.026043261234083435,0.1960973233885966,0.2419149383519276
10.462125496020334,1.7038962847455053,5.588811582578415,0.031145233974371314,0.0008850932652181457,-0.026043261234083435,0.1993035490322667,0.2463963109460747
10.493270729994705,1.7047813780107235,5.562768321344331,0.031145233974371314,0.0008850932652181457,-0.026043261234083435,0.1993035490322667,0.2509361178995332
10.489619710141671,1.7134807962712097,5.549248789095869,-0.003651019853034183,0.008699418260486268,-0.013519532248461568,0.1993035490322667,0.25553473772401397
10.485968690288637,1.722180214531696,5.535729256847407,-0.003651019853034183,0.008699418260486268,-0.013519532248461568,0.1895947556791554,0.26019254893122784
10.482317670435602,1.7308796327921823,5.522209724598945,-0.003651019853034183,0.008699418260486268,-0.013519532248461568,0.1879027912768964,0.26490993003288593
10.478666650582568,1.7395790510526685,5.508690192350484,-0.003651019853034183,0.008699418260486268,-0.013519532248461568,0.18455585378922812,0.26968725954069905
10.475015630729533,1.7482784693131548,5.495170660102022,-0.003651019853034183,0.008699418260486268,-0.013519532248461568,0.18139593405395427,0.2745249159663781
10.471364610876499,1.756977887573641,5.48165112785356,-0.003651019853034183,0.008699418260486268,-0.013519532248461568,0.18283627663452418,0.2794232778216341
10.467713591023465,1.7656773058341273,5.468131595605098,-0.003651019853034183,0.008699418260486268,-0.013519532248461568,0.18260300785607417,0.284382723618178
10.46406257117043,1.7743767240946136,5.454612063356636,-0.003651019853034183,0.008699418260486268,-0.013519532248461568,0.192533254447722,0.2894036318677206
10.460411551317396,1.7830761423550998,5.441092531108175,-0.003651019853034183,0.008699418260486268,-0.013519532248461568,0.19791259302362557,0.29448638108197295
10.456760531464361,1.791775560615586,5.427572998859713,-0.003651019853034183,0.008699418260486268,-0.013519532248461568,0.19540518830631692,0.2996313497726459
10.453109511611327,1.8004749788760723,5.414053466611251,-0.003651019853034183,0.008699418260486268,-0.013519532248461568,0.20457517790859608,0.30483891645145034
10.449458491758293,1.8091743971365586,5.400533934362789,-0.003651019853034183,0.008699418260486268,-0.013519532248461568,0.214758076827422,0.31010945963009734
10.445807471905258,1.8178738153970448,5.387014402114327,-0.003651019853034183,0.008699418260486268,-0.013519532248461568,0.214758076827422,0.31544335782029775
10.442156452052224,1.826573233657531,5.3734948698658656,-0.003651019853034183,0.008699418260486268,-0.013519532248461568,0.214758076827422,0.3208409895337625
10.43850543219919,1.8352726519180174,5.359975337617404,-0.003651019853034183,0.008699418260486268,-0.013519532248461568,0.214758076827422,0.32630273328220255
10.434854412346155,1.8439720701785036,5.346455805368942,-0.003651019853034183,0.008699418260486268,-0.013519532248461568,0.2103313291500662,0.3291634289137643
10.43120339249312,1.8526714884389899,5.33293627312048,-0.003651019853034183,0.008699418260486268,-0.013519532248461568,0.2103313291500662,0.3320415566517977
10.427552372640086,1.8613709066994761,5.319416740872018,-0.003651019853034183,0.008699418260486268,-0.013519532248461568,0.2103313291500662,0.33493716944779656
10.423901352787052,1.8700703249599624,5.3058972086235565,-0.003651019853034183,0.008699418260486268,-0.013519532248461568,0.2103313291500662,0.33785032025325473
10.420250332934017,1.8787697432204487,5.292377676375095,-0.003651019853034183,0.008699418260486268,-0.013519532248461568,0.2103313291500662,0.34078106201966624
10.416599313080983,1.887469161480935,5.278858144126633,-0.003651019853034183,0.008699418260486268,-0.013519532248461568,0.20334426893199692,0.3437294476985249
10.412948293227949,1.8961685797414212,5.265338611878171,-0.003651019853034183,0.008699418260486268,-0.013519532248461568,0.20334426893199692,0.3466955302413247
10.409297273374914,1.9048679980019074,5.251819079629709,-0.003651019853034183,0.008699418260486268,-0.013519532248461568,0.1991990626894959,0.34967936259955945
10.40564625352188,1.9135674162623937,5.2382995473812475,-0.003651019853034183,0.008699418260486268,-0.013519532248461568,0.20697913577887678,0.3526809977247231
10.401995233668845,1.92226683452288,5.224780015132786,-0.003651019853034183,0.008699418260486268,-0.013519532248461568,0.20162771732951687,0.3557004885683096
10.398344213815811,1.9309662527833662,5.211260482884324,-0.003651019853034183,0.008699418260486268,-0.013519532248461568,0.2034935885275091,0.3587378880818127
10.394693193962777,1.9396656710438525,5.197740950635862,-0.003651019853034183,0.008699418260486268,-0.013519532248461568,0.2387566876190175,0.3617932492167264
10.391042174109742,1.9483650893043387,5.1842214183874,-0.003651019853034183,0.008699418260486268,-0.013519532248461568,0.2387566876190175,0.36486662492454464
10.387391154256708,1.957064507564825,5.170701886138938,-0.003651019853034183,0.008699418260486268,-0.013519532248461568,0.2387566876190175,0.3679580681567613
10.376455058784437,1.9597989749357954,5.157735163375532,-0.01093609547227148,0.0027344673709703104,-0.012966722763405745,0.2387566876190175,0.3710676318648702
10.365518963312166,1.9625334423067657,5.144768440612126,-0.01093609547227148,0.0027344673709703104,-0.012966722763405745,0.2387566876190175,0.3741953690003653
10.354582867839895,1.9652679096777361,5.13180171784872,-0.01093609547227148,0.0027344673709703104,-0.012966722763405745,0.2387566876190175,0.3773413325147405
10.343646772367624,1.9680023770487065,5.118834995085314,-0.01093609547227148,0.0027344673709703104,-0.012966722763405745,0.2387566876190175,0.38050557535948976
10.332710676895353,1.970736844419677,5.105868272321908,-0.01093609547227148,0.0027344673709703104,-0.012966722763405745,0.2387566876190175,0.3836881504861069
10.321774581423082,1.9734713117906473,5.092901549558502,-0.01093609547227148,0.0027344673709703104,-0.012966722763405745,0.2387566876190175,0.38688911084608585
10.31083848595081,1.9762057791616177,5.079934826795096,-0.01093609547227148,0.0027344673709703104,-0.012966722763405745,0.2387566876190175,0.39010850939092045
10.29990239047854,1.978940246532588,5.06696810403169,-0.01093609547227148,0.0027344673709703104,-0.012966722763405745,0.2387566876190175,0.3933463990721047
10.288966295006269,1.9816747139035584,5.054001381268284,-0.01093609547227148,0.0027344673709703104,-0.012966722763405745,0.2379843778598278,0.39660283284113246
10.278030199533998,1.9844091812745288,5.041034658504878,-0.01093609547227148,0.0027344673709703104,-0.012966722763405745,0.23992086249718533,0.3998778636494977
10.267094104061727,1.9871436486454992,5.028067935741472,-0.01093609547227148,0.0027344673709703104,-0.012966722763405745,0.2385776853047396,0.40317154444869413
10.256158008589455,1.9898781160164696,5.015101212978066,-0.01093609547227148,0.0027344673709703104,-0.012966722763405745,0.2385776853047396,0.4064839281902158
10.245221913117184,1.99261258338744,5.00213449021466,-0.01093609547227148,0.0027344673709703104,-0.012966722763405745,0.2385776853047396,0.4098150678255566
10.234285817644913,1.9953470507584103,4.989167767451254,-0.01093609547227148,0.0027344673709703104,-0.012966722763405745,0.2385776853047396,0.4131650163062105
10.223349722172642,1.9980815181293807,4.976201044687848,-0.01093609547227148,0.0027344673709703104,-0.012966722763405745,0.2385776853047396,0.4165338265836712
10.212413626700371,2.000815985500351,4.963234321924442,-0.01093609547227148,0.0027344673709703104,-0.012966722763405745,0.2385776853047396,0.419782657007961
10.2014775312281,2.003550452871321,4.950267599161036,-0.01093609547227148,0.0027344673709703104,-0.012966722763405745,0.23536022857858033,0.42304893368694907
10.19054143575583,2.006284920242291,4.93730087639763,-0.01093609547227148,0.0027344673709703104,-0.012966722763405745,0.23554435275931762,0.42633270333859796
10.179605340283558,2.0090193876132614,4.9243341536342236,-0.01093609547227148,0.0027344673709703104,-0.012966722763405745,0.23554435275931762,0.42963401268087037
10.168669244811287,2.0117538549842315,4.9113674308708175,-0.01093609547227148,0.0027344673709703104,-0.012966722763405745,0.2351813906005512,0.43295290843172907
10.157733149339016,2.0144883223552017,4.8984007081074115,-0.01093609547227148,0.0027344673709703104,-0.012966722763405745,0.2351813906005512,0.4362894373091366
10.146797053866745,2.017222789726172,4.885433985344005,-0.01093609547227148,0.0027344673709703104,-0.012966722763405745,0.2310988354048391,0.43964364603105577
10.135860958394474,2.019957257097142,4.872467262580599,-0.01093609547227148,0.0027344673709703104,-0.012966722763405745,0.2278447838477949,0.4430155813154492
10.124924862922203,2.022691724468112,4.859500539817193,-0.01093609547227148,0.0027344673709703104,-0.012966722763405745,0.23249872361591228,0.4464052898802796
10.113988767449932,2.0254261918390823,4.846533817053787,-0.01093609547227148,0.0027344673709703104,-0.012966722763405745,0.2426322759089243,0.4498128184435097
10.103052671977661,2.0281606592100525,4.833567094290381,-0.01093609547227148,0.0027344673709703104,-0.012966722763405745,0.25519148251420803,0.45323821372310197
10.09211657650539,2.0308951265810227,4.820600371526975,-0.01093609547227148,0.0027344673709703104,-0.012966722763405745,0.25519148251420803,0.4566815224370193
10.081180481033119,2.033629593951993,4.807633648763569,-0.01093609547227148,0.0027344673709703104,-0.012966722763405745,0.25519148251420803,0.46014279130322433
10.070244385560848,2.036364061322963,4.794666926000163,-0.01093609547227148,0.0027344673709703104,-0.012966722763405745,0.25182872486119967,0.4636220670396798
10.059308290088577,2.039098528693933,4.781700203236757,-0.01093609547227148,0.0027344673709703104,-0.012966722763405745,0.25182872486119967,0.4671193963643481
10.048372194616306,2.0418329960649033,4.768733480473351,-0.01093609547227148,0.0027344673709703104,-0.012966722763405745,0.25182872486119967,0.47063482599519235
10.037436099144035,2.0445674634358735,4.755766757709945,-0.01093609547227148,0.0027344673709703104,-0.012966722763405745,0.25182872486119967,0.4741684026501749
10.026500003671764,2.0473019308068436,4.742800034946539,-0.01093609547227148,0.0027344673709703104,-0.012966722763405745,0.2506498757966359,0.47772017304725856
10.015563908199493,2.050036398177814,4.729833312183133,-0.01093609547227148,0.0027344673709703104,-0.012966722763405745,0.26016487043837655,0.4812901839044059
10.004627812727222,2.052770865548784,4.716866589419727,-0.01093609547227148,0.0027344673709703104,-0.012966722763405745,0.26016487043837655,0.4848784819395798
9.99369171725495,2.055505332919754,4.703899866656321,-0.01093609547227148,0.0027344673709703104,-0.012966722763405745,0.27937171192581894,0.4884851138707427
9.98275562178268,2.0582398002907243,4.690933143892915,-0.01093609547227148,0.0027344673709703104,-0.012966722763405745,0.27937171192581894,0.49211012641585755
9.971819526310409,2.0609742676616944,4.677966421129509,-0.01093609547227148,0.0027344673709703104,-0.012966722763405745,0.27937171192581894,0.4957535662928869
9.960883430838138,2.0637087350326646,4.664999698366103,-0.01093609547227148,0.0027344673709703104,-0.012966722763405745,0.27937171192581894,0.4994154802197934
9.949947335365867,2.0664432024036348,4.652032975602697,-0.01093609547227148,0.0027344673709703104,-0.012966722763405745,0.27937171192581894,0.5030959149145396
9.939011239893595,2.069177669774605,4.6390662528392905,-0.01093609547227148,0.0027344673709703104,-0.012966722763405745,0.27937171192581894,0.5067949170950885
9.928075144421324,2.071912137145575,4.6260995300758845,-0.01093609547227148,0.0027344673709703104,-0.012966722763405745,0.27937171192581894,0.5105125334794026
9.917139048949053,2.0746466045165453,4.613132807312478,-0.01093609547227148,0.0027344673709703104,-0.012966722763405745,0.27937171192581894,0.5142488107854447
9.906202953476782,2.0773810718875154,4.600166084549072,-0.01093609547227148,0.0027344673709703104,-0.012966722763405745,0.27937171192581894,0.5180037957311772
9.895266858004511,2.0801155392584856,4.587199361785666,-0.01093609547227148,0.0027344673709703104,-0.012966722763405745,0.27937171192581894,0.5217775350345631
9.88433076253224,2.0828500066294557,4.57423263902226,-0.01093609547227148,0.0027344673709703104,-0.012966722763405745,0.27937171192581894,0.5255700754135648
9.87339466705997,2.085584474000426,4.561265916258854,-0.01093609547227148,0.0027344673709703104,-0.012966722763405745,0.27719125183300547,0.5293814635861452
9.862458571587698,2.088318941371396,4.548299193495448,-0.01093609547227148,0.0027344673709703104,-0.012966722763405745,0.27754710792809417,0.533211746270267
9.851522476115427,2.0910534087423662,4.535332470732042,-0.01093609547227148,0.0027344673709703104,-0.012966722763405745,0.27738410838582717,0.5370609701838928
9.840586380643156,2.0937878761133364,4.522365747968636,-0.01093609547227148,0.0027344673709703104,-0.012966722763405745,0.273475344602251,0.5409291820449852
9.829650285170885,2.0965223434843065,4.50939902520523,-0.01093609547227148,0.0027344673709703104,-0.012966722763405745,0.2732885417915163,0.5448164285715069
9.818714189698614,2.0992568108552767,4.496432302441824,-0.01093609547227148,0.0027344673709703104,-0.012966722763405745,0.26728352851902387,0.5487227564814207
9.807778094226343,2.101991278226247,4.483465579678418,-0.01093609547227148,0.0027344673709703104,-0.012966722763405745,0.2574499406106801,0.5526482124926891
9.796841998754072,2.104725745597217,4.470498856915012,-0.01093609547227148,0.0027344673709703104,-0.012966722763405745,0.2574499406106801,0.5565928433232751
9.785905903281801,2.107460212968187,4.457532134151606,-0.01093609547227148,0.0027344673709703104,-0.012966722763405745,0.27501193369782423,0.560556695691141
9.77496980780953,2.1101946803391574,4.4445654113882,-0.01093609547227148,0.0027344673709703104,-0.012966722763405745,0.2773545526111718,0.5645398163142499
9.764033712337259,2.1129291477101275,4.431598688624794,-0.01093609547227148,0.0027344673709703104,-0.012966722763405745,0.2785267303437788,0.568542251910564
9.753097616864988,2.1156636150810977,4.418631965861388,-0.01093609547227148,0.0027344673709703104,-0.012966722763405745,0.2785267303437788,0.5725640491980463
9.742161521392717,2.118398082452068,4.405665243097982,-0.01093609547227148,0.0027344673709703104,-0.012966722763405745,0.2785267303437788,0.5766052548946594
9.731225425920446,2.121132549823038,4.392698520334576,-0.01093609547227148,0.0027344673709703104,-0.012966722763405745,0.27693608792573815,0.580665915718366
9.720289330448175,2.123867017194008,4.37973179757117,-0.01093609547227148,0.0027344673709703104,-0.012966722763405745,0.27693608792573815,0.5847460783871288
9.709353234975904,2.1266014845649783,4.3667650748077635,-0.01093609547227148,0.0027344673709703104,-0.012966722763405745,0.2887611886147924,0.5888457896189103
9.698417139503633,2.1293359519359485,4.3537983520443575,-0.01093609547227148,0.0027344673709703104,-0.012966722763405745,0.2887611886147924,0.5929650961316735
9.687481044031362,2.1320704193069187,4.3408316292809515,-0.01093609547227148,0.0027344673709703104,-0.012966722763405745,0.2887611886147924,0.5971040446433808
9.67654494855909,2.134804886677889,4.327864906517545,-0.01093609547227148,0.0027344673709703104,-0.012966722763405745,0.2887611886147924,0.601262681871995
9.66560885308682,2.137539354048859,4.314898183754139,-0.01093609547227148,0.0027344673709703104,-0.012966722763405745,0.2887611886147924,0.6054410545354788
9.654672757614549,2.140273821419829,4.301931460990733,-0.01093609547227148,0.0027344673709703104,-0.012966722763405745,0.2887611886147924,0.6096392093517949
9.643736662142278,2.1430082887907993,4.288964738227327,-0.01093609547227148,0.0027344673709703104,-0.012966722763405745,0.2887611886147924,0.613857193038906
9.632800566670007,2.1457427561617695,4.275998015463921,-0.01093609547227148,0.0027344673709703104,-0.012966722763405745,0.2887611886147924,0.6180950523147746
9.621864471197735,2.1484772235327396,4.263031292700515,-0.01093609547227148,0.0027344673709703104,-0.012966722763405745,0.2887611886147924,0.6223528338973635
9.610928375725464,2.15121169090371,4.250064569937109,-0.01093609547227148,0.0027344673709703104,-0.012966722763405745,0.2855238376934866,0.6266305845046355
9.599992280253193,2.15394615827468,4.237097847173703,-0.01093609547227148,0.0027344673709703104,-0.012966722763405745,0.2855238376934866,0.630928350854553
9.589056184780922,2.15668062564565,4.224131124410297,-0.01093609547227148,0.0027344673709703104,-0.012966722763405745,0.29272847019712445,0.6352461796650789
9.578120089308651,2.1594150930166203,4.211164401646891,-0.01093609547227148,0.0027344673709703104,-0.012966722763405745,0.29272847019712445,0.6395841176541759
9.56718399383638,2.1621495603875904,4.198197678883485,-0.01093609547227148,0.0027344673709703104,-0.012966722763405745,0.30469319016766305,0.6439422115398066
9.55624789836411,2.1648840277585606,4.185230956120079,-0.01093609547227148,0.0027344673709703104,-0.012966722763405745,0.30469319016766305,0.6483205080399337
9.545311802891838,2.1676184951295308,4.172264233356673,-0.01093609547227148,0.0027344673709703104,-0.012966722763405745,0.30469319016766305,0.6527190538725197
9.534375707419567,2.170352962500501,4.159297510593267,-0.01093609547227148,0.0027344673709703104,-0.012966722763405745,0.30469319016766305,0.6571378957555276
9.523439611947296,2.173087429871471,4.146330787829861,-0.01093609547227148,0.0027344673709703104,-0.012966722763405745,0.30469319016766305,0.6615770804069199
9.512503516475025,2.1758218972424412,4.133364065066455,-0.01093609547227148,0.0027344673709703104,-0.012966722763405745,0.30469319016766305,0.6660366545446593
9.501567421002754,2.1785563646134114,4.120397342303049,-0.01093609547227148,0.0027344673709703104,-0.012966722763405745,0.30469319016766305,0.6705166648867086
9.490631325530483,2.1812908319843816,4.107430619539643,-0.01093609547227148,0.0027344673709703104,-0.012966722763405745,0.30469319016766305,0.6750171581510304
9.479695230058212,2.1840252993553517,4.094463896776237,-0.01093609547227148,0.0027344673709703104,-0.012966722763405745,0.30469319016766305,0.6795381810555872
9.468759134585941,2.186759766726322,4.0814971740128305,-0.01093609547227148,0.0027344673709703104,-0.012966722763405745,0.3026152361500721,0.6840797803183418
9.45782303911367,2.189494234097292,4.0685304512494245,-0.01093609547227148,0.0027344673709703104,-0.012966722763405745,0.29418373958647503,0.6886420026572571
9.446886943641399,2.192228701468262,4.055563728486018,-0.01093609547227148,0.0027344673709703104,-0.012966722763405745,0.31027251376759624,0.6932248947902955
9.435950848169128,2.1949631688392324,4.042597005722612,-0.01093609547227148,0.0027344673709703104,-0.012966722763405745,0.30809634016928905,0.6978285034354198
9.425014752696857,2.1976976362102025,4.029630282959206,-0.01093609547227148,0.0027344673709703104,-0.012966722763405745,0.30809634016928905,0.7024528753105928
9.414078657224586,2.2004321035811727,4.0166635601958,-0.01093609547227148,0.0027344673709703104,-0.012966722763405745,0.30809634016928905,0.7070980571337768
9.403142561752315,2.203166570952143,4.003696837432394,-0.01093609547227148,0.0027344673709703104,-0.012966722763405745,0.3029676525925034,0.711764095622935
9.417900684839802,2.2111596824214472,3.9963911034098265,0.014758123087487997,0.00799311146930452,-0.007305734022567768,0.302113744947635,0.7164510374960296
9.43265880792729,2.2191527938907516,3.9890853693872588,0.014758123087487997,0.00799311146930452,-0.007305734022567768,0.30255744804851414,0.7211589294710236
9.447416931014777,2.227145905360056,3.981779635364691,0.014758123087487997,0.00799311146930452,-0.007305734022567768,0.30255744804851414,0.7258878182658794
9.462175054102264,2.2351390168293603,3.9744739013421233,0.014758123087487997,0.00799311146930452,-0.007305734022567768,0.30255744804851414,0.7306377505985601
9.476933177189752,2.2431321282986647,3.9671681673195556,0.014758123087487997,0.00799311146930452,-0.007305734022567768,0.2962180904761172,0.735408773187028
9.491691300277239,2.251125239767969,3.959862433296988,0.014758123087487997,0.00799311146930452,-0.007305734022567768,0.29543723277115075,0.7402009327492459
9.506449423364726,2.2591183512372734,3.95255669927442,0.014758123087487997,0.00799311146930452,-0.007305734022567768,0.29907497043876713,0.7450142760031766
9.521207546452214,2.267111462706578,3.9452509652518524,0.014758123087487997,0.00799311146930452,-0.007305734022567768,0.31910957496742365,0.7498488496667827
9.535965669539701,2.275104574175882,3.9379452312292846,0.014758123087487997,0.00799311146930452,-0.007305734022567768,0.31910957496742365,0.7547047004580267
9.550723792627188,2.2830976856451866,3.930639497206717,0.014758123087487997,0.00799311146930452,-0.007305734022567768,0.31910957496742365,0.7595818750948716
9.565481915714676,2.291090797114491,3.923333763184149,0.014758123087487997,0.00799311146930452,-0.007305734022567768,0.31910957496742365,0.7644804202952798
9.580240038802163,2.2990839085837953,3.9160280291615814,0.014758123087487997,0.00799311146930452,-0.007305734022567768,0.316816108442754,0.7694003827772141
9.59499816188965,2.3070770200530997,3.9087222951390137,0.014758123087487997,0.00799311146930452,-0.007305734022567768,0.316816108442754,0.7743418092586374
9.609756284977138,2.315070131522404,3.901416561116446,0.014758123087487997,0.00799311146930452,-0.007305734022567768,0.316816108442754,0.779304746457512
9.624514408064625,2.3230632429917084,3.8941108270938782,0.014758123087487997,0.00799311146930452,-0.007305734022567768,0.32120486401991744,0.7842892410918009
9.639272531152113,2.331056354461013,3.8868050930713105,0.014758123087487997,0.00799311146930452,-0.007305734022567768,0.32120486401991744,0.7871071261184438
9.6540306542396,2.339049465930317,3.8794993590487428,0.014758123087487997,0.00799311146930452,-0.007305734022567768,0.311723205016883,0.789931877611901
9.668788777327087,2.3470425773996215,3.872193625026175,0.014758123087487997,0.00799311146930452,-0.007305734022567768,0.3150139406417386,0.7927635039279098
9.683546900414575,2.355035688868926,3.8648878910036073,0.014758123087487997,0.00799311146930452,-0.007305734022567768,0.3150139406417386,0.7956020134222079
9.698305023502062,2.3630288003382303,3.8575821569810396,0.014758123087487997,0.00799311146930452,-0.007305734022567768,0.3150139406417386,0.7984474144505327
9.71306314658955,2.3710219118075346,3.850276422958472,0.014758123087487997,0.00799311146930452,-0.007305734022567768,0.3150139406417386,0.801299715368622
9.727821269677037,2.379015023276839,3.842970688935904,0.014758123087487997,0.00799311146930452,-0.007305734022567768,0.3170469910301,0.8041589245322129
9.742579392764524,2.3870081347461434,3.8356649549133364,0.014758123087487997,0.00799311146930452,-0.007305734022567768,0.3071210101974922,0.8070250502970433
9.757337515852011,2.3950012462154477,3.8283592208907686,0.014758123087487997,0.00799311146930452,-0.007305734022567768,0.32025001481899773,0.8098981010188506
9.772095638939499,2.402994357684752,3.821053486868201,0.014758123087487997,0.00799311146930452,-0.007305734022567768,0.3199932021002815,0.8127780850533723
9.786853762026986,2.4109874691540565,3.813747752845633,0.014758123087487997,0.00799311146930452,-0.007305734022567768,0.32809536301127584,0.8156650107563461
9.801611885114474,2.418980580623361,3.8064420188230654,0.014758123087487997,0.00799311146930452,-0.007305734022567768,0.3223244145012268,0.8185588864835095
9.816370008201961,2.4269736920926652,3.7991362848004977,0.014758123087487997,0.00799311146930452,-0.007305734022567768,0.31296312316994457,0.8214597205905999
9.831128131289448,2.4349668035619696,3.79183055077793,0.014758123087487997,0.00799311146930452,-0.007305734022567768,0.31143694025605784,0.8243675214333549
9.845886254376936,2.442959915031274,3.7845248167553622,0.014758123087487997,0.00799311146930452,-0.007305734022567768,0.3379771875088366,0.827282297367512
9.860644377464423,2.4509530265005783,3.7772190827327945,0.014758123087487997,0.00799311146930452,-0.007305734022567768,0.3379771875088366,0.8302040567488088
9.87540250055191,2.4589461379698827,3.7699133487102268,0.014758123087487997,0.00799311146930452,-0.007305734022567768,0.3379771875088366,0.8331328079329828
9.890160623639398,2.466939249439187,3.762607614687659,0.014758123087487997,0.00799311146930452,-0.007305734022567768,0.3379771875088366,0.8360685592757716
9.904918746726885,2.4749323609084914,3.7553018806650913,0.014758123087487997,0.00799311146930452,-0.007305734022567768,0.3379771875088366,0.8390113191329127
9.919676869814372,2.482925472377796,3.7479961466425236,0.014758123087487997,0.00799311146930452,-0.007305734022567768,0.34141980819148476,0.8419610958601437
9.93443499290186,2.4909185838471,3.740690412619956,0.014758123087487997,0.00799311146930452,-0.007305734022567768,0.34141980819148476,0.844917897813202
9.949193115989347,2.4989116953164046,3.733384678597388,0.014758123087487997,0.00799311146930452,-0.007305734022567768,0.34141980819148476,0.8478817333478252
9.963951239076835,2.506904806785709,3.7260789445748204,0.014758123087487997,0.00799311146930452,-0.007305734022567768,0.34141980819148476,0.8508526108197508
9.978709362164322,2.5148979182550133,3.7187732105522526,0.014758123087487997,0.00799311146930452,-0.007305734022567768,0.34141980819148476,0.8538305385847165
9.99346748525181,2.5228910297243177,3.711467476529685,0.014758123087487997,0.00799311146930452,-0.007305734022567768,0.34141980819148476,0.8568155249984597
10.008225608339297,2.530884141193622,3.704161742507117,0.014758123087487997,0.00799311146930452,-0.007305734022567768,0.34011545319103403,0.859807578416718
10.022983731426784,2.5388772526629264,3.6968560084845494,0.014758123087487997,0.00799311146930452,-0.007305734022567768,0.34011545319103403,0.8628067071952288
10.037741854514271,2.546870364132231,3.6895502744619817,0.014758123087487997,0.00799311146930452,-0.007305734022567768,0.34011545319103403,0.8658129196897298
10.052499977601759,2.554863475601535,3.682244540439414,0.014758123087487997,0.00799311146930452,-0.007305734022567768,0.34011545319103403,0.8688262242559585
10.067258100689246,2.5628565870708395,3.6749388064168462,0.014758123087487997,0.00799311146930452,-0.007305734022567768,0.33866251276919884,0.8718466292496523
10.082016223776733,2.570849698540144,3.6676330723942785,0.014758123087487997,0.00799311146930452,-0.007305734022567768,0.33866251276919884,0.8748741430265489
10.09677434686422,2.5788428100094483,3.6603273383717108,0.014758123087487997,0.00799311146930452,-0.007305734022567768,0.34073973007590164,0.8779087739423858
10.114306898781951,2.5732574192463957,3.6985573116424093,0.017532551917730777,-0.005585390763052338,0.038229973270698596,0.34073973007590164,0.8809505303529006
10.131839450699681,2.567672028483343,3.736787284913108,0.017532551917730777,-0.005585390763052338,0.038229973270698596,0.34073973007590164,0.8839994206138306
10.149372002617412,2.5620866377202907,3.7750172581838064,0.017532551917730777,-0.005585390763052338,0.038229973270698596,0.34073973007590164,0.8870554530809136
10.166904554535142,2.556501246957238,3.813247231454505,0.017532551917730777,-0.005585390763052338,0.038229973270698596,0.34643281528496134,0.8901186361098871
10.184437106452872,2.5509158561941856,3.8514772047252035,0.017532551917730777,-0.005585390763052338,0.038229973270698596,0.34643281528496134,0.8931889780564886
10.201969658370603,2.545330465431133,3.889707177995902,0.017532551917730777,-0.005585390763052338,0.038229973270698596,0.3400351121669767,0.8962664872764554
10.219502210288333,2.5397450746680805,3.9279371512666006,0.017532551917730777,-0.005585390763052338,0.038229973270698596,0.3397134683837188,0.8993511721255254
10.237034762206063,2.534159683905028,3.966167124537299,0.017532551917730777,-0.005585390763052338,0.038229973270698596,0.3397134683837188,0.9024430409594361
10.254567314123793,2.5285742931419755,4.004397097807998,0.017532551917730777,-0.005585390763052338,0.038229973270698596,0.3397134683837188,0.9055421021339246
10.272099866041524,2.522988902378923,4.042627071078697,0.017532551917730777,-0.005585390763052338,0.038229973270698596,0.3397134683837188,0.908648364004729
10.289632417959254,2.5174035116158704,4.080857044349396,0.017532551917730777,-0.005585390763052338,0.038229973270698596,0.3397134683837188,0.9117618349275867
10.307164969876984,2.511818120852818,4.119087017620095,0.017532551917730777,-0.005585390763052338,0.038229973270698596,0.3397134683837188,0.9148825232582348
10.324697521794715,2.5062327300897653,4.157316990890794,0.017532551917730777,-0.005585390763052338,0.038229973270698596,0.3397134683837188,0.9180104373524115
10.342230073712445,2.500647339326713,4.195546964161493,0.017532551917730777,-0.005585390763052338,0.038229973270698596,0.3397134683837188,0.921145585565854
10.359762625630175,2.4950619485636603,4.233776937432192,0.017532551917730777,-0.005585390763052338,0.038229973270698596,0.3397134683837188,0.9242879762542998
10.377295177547905,2.4894765578006077,4.272006910702891,0.017532551917730777,-0.005585390763052338,0.038229973270698596,0.3397134683837188,0.9242879762542998
10.394827729465636,2.483891167037555,4.31023688397359,0.017532551917730777,-0.005585390763052338,0.038229973270698596,0.3397134683837188,0.9242879762542998
10.412360281383366,2.4783057762745027,4.348466857244289,0.017532551917730777,-0.005585390763052338,0.038229973270698596,0.33519619337120193,0.9242879762542998
10.429892833301096,2.47272038551145,4.386696830514988,0.017532551917730777,-0.005585390763052338,0.038229973270698596,0.34204885683636743,0.9242879762542998
10.447425385218827,2.4671349947483976,4.424926803785687,0.017532551917730777,-0.005585390763052338,0.038229973270698596,0.3422446465352157,0.9242879762542998
10.464957937136557,2.461549603985345,4.463156777056386,0.017532551917730777,-0.005585390763052338,0.038229973270698596,0.3354462216158691,0.9242879762542998
10.482490489054287,2.4559642132222925,4.501386750327085,0.017532551917730777,-0.005585390763052338,0.038229973270698596,0.33884362920778416,0.9242879762542998
10.500023040972017,2.45037882245924,4.539616723597784,0.017532551917730777,-0.005585390763052338,0.038229973270698596,0.34326938763771425,0.9242879762542998
10.517555592889748,2.4447934316961875,4.577846696868483,0.017532551917730777,-0.005585390763052338,0.038229973270698596,0.33623674341343607,0.9242879762542998
10.535088144807478,2.439208040933135,4.616076670139182,0.017532551917730777,-0.005585390763052338,0.038229973270698596,0.33587038002464664,0.9242879762542998
10.552620696725208,2.4336226501700824,4.654306643409881,0.017532551917730777,-0.005585390763052338,0.038229973270698596,0.33224396727546623,0.921057240104798
10.570153248642939,2.42803725940703,4.69253661668058,0.017532551917730777,-0.005585390763052338,0.038229973270698596,0.329159460990951,0.9203119884165887
10.587685800560669,2.4224518686439773,4.730766589951279,0.017532551917730777,-0.005585390763052338,0.038229973270698596,0.3283749084808889,0.9038062323726692
10.6052183524784,2.416866477880925,4.768996563221978,0.017532551917730777,-0.005585390763052338,0.038229973270698596,0.33150572273626916,0.8973921011801205
10.62275090439613,2.4112810871178723,4.807226536492677,0.017532551917730777,-0.005585390763052338,0.038229973270698596,0.3303076992341632,0.8967569684571157
10.64028345631386,2.4056956963548197,4.845456509763376,0.017532551917730777,-0.005585390763052338,0.038229973270698596,0.3322794272844068,0.9072389766887342
10.65781600823159,2.400110305591767,4.883686483034075,0.017532551917730777,-0.005585390763052338,0.038229973270698596,0.3256018145916296,0.9027998579045369
10.67534856014932,2.3945249148287147,4.921916456304774,0.017532551917730777,-0.005585390763052338,0.038229973270698596,0.3224047373385658,0.891909108258619
10.69288111206705,2.388939524065662,4.960146429575473,0.017532551917730777,-0.005585390763052338,0.038229973270698596,0.319734903163812,0.9075257301904359
10.710413663984781,2.3833541333026096,4.998376402846172,0.017532551917730777,-0.005585390763052338,0.038229973270698596,0.32672198085503446,0.9105735419639284
10.727946215902511,2.377768742539557,5.036606376116871,0.017532551917730777,-0.005585390763052338,0.038229973270698596,0.32851013266392326,0.9268829597744083
10.745478767820241,2.3721833517765045,5.07483634938757,0.017532551917730777,-0.005585390763052338,0.038229973270698596,0.3275351848131568,0.9215359382818412
10.763011319737972,2.366597961013452,5.113066322658269,0.017532551917730777,-0.005585390763052338,0.038229973270698596,0.32716642066482254,0.9192323475485792
10.780543871655702,2.3610125702503995,5.151296295928968,0.017532551917730777,-0.005585390763052338,0.038229973270698596,0.32951869267336187,0.9090313756766257
10.798076423573432,2.355427179487347,5.189526269199667,0.017532551917730777,-0.005585390763052338,0.038229973270698596,0.3255282998335118,0.9008055702112762
10.815608975491163,2.3498417887242944,5.227756242470366,0.017532551917730777,-0.005585390763052338,0.038229973270698596,0.32602730315893047,0.8950056385882382
10.833141527408893,2.344256397961242,5.265986215741065,0.017532551917730777,-0.005585390763052338,0.038229973270698596,0.3165670667601711,0.8854658900995187
10.850674079326623,2.3386710071981893,5.304216189011764,0.017532551917730777,-0.005585390763052338,0.038229973270698596,0.31060181985199503,0.885541374584147
10.868206631244353,2.333085616435137,5.342446162282463,0.017532551917730777,-0.005585390763052338,0.038229973270698596,0.3075001901889104,0.8927628365632162
10.885739183162084,2.3275002256720843,5.380676135553162,0.017532551917730777,-0.005585390763052338,0.038229973270698596,0.30395042393323524,0.8965305649813164
10.903271735079814,2.3219148349090317,5.418906108823861,0.017532551917730777,-0.005585390763052338,0.038229973270698596,0.2954335501681272,0.9025136481123552
10.920804286997544,2.316329444145979,5.45713608209456,0.017532551917730777,-0.005585390763052338,0.038229973270698596,0.2948124285569083,0.8947652569983991
10.938336838915275,2.3107440533829267,5.495366055365259,0.017532551917730777,-0.005585390763052338,0.038229973270698596,0.293961929102141,0.8890691279148334
10.955869390833005,2.305158662619874,5.533596028635958,0.017532551917730777,-0.005585390763052338,0.038229973270698596,0.29628946806648276,0.895376161771885
10.973401942750735,2.2995732718568216,5.571826001906657,0.017532551917730777,-0.005585390763052338,0.038229973270698596,0.3001585895278051,0.9067329655267569
10.990934494668466,2.293987881093769,5.610055975177356,0.017532551917730777,-0.005585390763052338,0.038229973270698596,0.3030719001428521,0.9000930532415381
11.008467046586196,2.2884024903307165,5.648285948448055,0.017532551917730777,-0.005585390763052338,0.038229973270698596,0.3065474364164163,0.8944158898087233
11.025999598503926,2.282817099567664,5.686515921718754,0.017532551917730777,-0.005585390763052338,0.038229973270698596,0.3126274329465951,0.9125453457610032
11.043532150421656,2.2772317088046115,5.724745894989453,0.017532551917730777,-0.005585390763052338,0.038229973270698596,0.3084661196986677,0.9177558479350661
11.061064702339387,2.271646318041559,5.762975868260152,0.017532551917730777,-0.005585390763052338,0.038229973270698596,0.3096010887841919,0.9342731723450333
11.078597254257117,2.2660609272785064,5.801205841530851,0.017532551917730777,-0.005585390763052338,0.038229973270698596,0.31573617857914976,0.9265880677924079
11.096129806174847,2.260475536515454,5.83943581480155,0.017532551917730777,-0.005585390763052338,0.038229973270698596,0.3085394848691412,0.9304363132343078
11.113662358092578,2.2548901457524013,5.877665788072249,0.017532551917730777,-0.005585390763052338,0.038229973270698596,0.311183637767704,0.9264139097497838
11.131194910010308,2.249304754989349,5.915895761342948,0.017532551917730777,-0.005585390763052338,0.038229973270698596,0.31238414360237743,0.944658313360683
11.148727461928038,2.2437193642262963,5.954125734613647,0.017532551917730777,-0.005585390763052338,0.038229973270698596,0.30981303152620654,0.9480426626869699
11.139002521730337,2.2321901629885157,6.002990035952679,-0.009724940197701658,-0.011529201237780598,0.048864301339032294,0.3126068061844737,0.9318780668191124
11.129277581532635,2.220660961750735,6.051854337291711,-0.009724940197701658,-0.011529201237780598,0.048864301339032294,0.30356169445307346,0.9231084726832492
11.119552641334934,2.2091317605129546,6.100718638630743,-0.009724940197701658,-0.011529201237780598,0.048864301339032294,0.29968178033170645,0.9152964409046563
11.109827701137233,2.197602559275174,6.149582939969775,-0.009724940197701658,-0.011529201237780598,0.048864301339032294,0.2995407195525358,0.9187965838763205
11.100102760939532,2.1860733580373934,6.1984472413088065,-0.009724940197701658,-0.011529201237780598,0.048864301339032294,0.3017500750018842,0.924122510997445
11.09037782074183,2.174544156799613,6.2473115426478385,-0.009724940197701658,-0.011529201237780598,0.048864301339032294,0.2933022025644142,0.9242869884657108
11.080652880544129,2.1630149555618323,6.2961758439868705,-0.009724940197701658,-0.011529201237780598,0.048864301339032294,0.29711253274949584,0.9442635494514392
11.070927940346428,2.1514857543240518,6.345040145325902,-0.009724940197701658,-0.011529201237780598,0.048864301339032294,0.2999686525851364,0.9603214019013351
11.061203000148726,2.139956553086271,6.393904446664934,-0.009724940197701658,-0.011529201237780598,0.048864301339032294,0.2985287100677684,0.9839615769998438
11.051478059951025,2.1284273518484906,6.442768748003966,-0.009724940197701658,-0.011529201237780598,0.048864301339032294,0.298872597267185,0.9870672117704548
11.041753119753324,2.11689815061071,6.491633049342998,-0.009724940197701658,-0.011529201237780598,0.048864301339032294,0.2973804756938429,0.9890882291725724
11.032028179555622,2.1053689493729295,6.54049735068203,-0.009724940197701658,-0.011529201237780598,0.048864301339032294,0.30766528247980773,0.9768022857945585
11.022303239357921,2.093839748135149,6.589361652021062,-0.009724940197701658,-0.011529201237780598,0.048864301339032294,0.3018950057006658,0.983509888292093
11.01257829916022,2.0823105468973684,6.638225953360094,-0.009724940197701658,-0.011529201237780598,0.048864301339032294,0.3052601932492407,0.971627666368125
11.002853358962518,2.070781345659588,6.687090254699126,-0.009724940197701658,-0.011529201237780598,0.048864301339032294,0.30388559860100217,0.9611956922381168
10.993128418764817,2.0592521444218073,6.735954556038158,-0.009724940197701658,-0.011529201237780598,0.048864301339032294,0.3092683126049204,0.9769527396200223
10.983403478567116,2.0477229431840267,6.78481885737719,-0.009724940197701658,-0.011529201237780598,0.048864301339032294,0.31040009468072394,0.9797390748668409
10.973678538369414,2.036193741946246,6.833683158716222,-0.009724940197701658,-0.011529201237780598,0.048864301339032294,0.3118935689164452,0.9773941847966154
10.963953598171713,2.0246645407084656,6.882547460055254,-0.009724940197701658,-0.011529201237780598,0.048864301339032294,0.31299979435567354,0.9600077712978986
10.954228657974012,2.013135339470685,6.931411761394286,-0.009724940197701658,-0.011529201237780598,0.048864301339032294,0.30998017789644533,0.9638798883275073
10.94450371777631,2.0016061382329045,6.980276062733318,-0.009724940197701658,-0.011529201237780598,0.048864301339032294,0.3078803161079175,0.9787803328872046
10.93477877757861,1.990076936995124,7.02914036407235,-0.009724940197701658,-0.011529201237780598,0.048864301339032294,0.3127660011837844,0.9666696121649934
10.925053837380908,1.9785477357573433,7.078004665411382,-0.009724940197701658,-0.011529201237780598,0.048864301339032294,0.3128379521766751,0.9719050182191002
10.915328897183207,1.9670185345195628,7.126868966750414,-0.009724940197701658,-0.011529201237780598,0.048864301339032294,0.3127547697142474,0.953165000721386
10.905603956985505,1.9554893332817822,7.175733268089446,-0.009724940197701658,-0.011529201237780598,0.048864301339032294,0.31098255658755164,0.9416238546978932
10.895879016787804,1.9439601320440016,7.224597569428478,-0.009724940197701658,-0.011529201237780598,0.048864301339032294,0.3085527559963243,0.9129131710207113
10.886154076590103,1.932430930806221,7.27346187076751,-0.009724940197701658,-0.011529201237780598,0.048864301339032294,0.3036199238005674,0.901192372258785
10.876429136392401,1.9209017295684405,7.322326172106542,-0.009724940197701658,-0.011529201237780598,0.048864301339032294,0.3048766443289679,0.8935826765632415
10.8667041961947,1.90937252833066,7.371190473445574,-0.009724940197701658,-0.011529201237780598,0.048864301339032294,0.30303295066216873,0.8895483920400566
10.856979255996999,1.8978433270928794,7.420054774784606,-0.009724940197701658,-0.011529201237780598,0.048864301339032294,0.3032433143225639,0.892912027042182
10.847254315799297,1.8863141258550988,7.468919076123638,-0.009724940197701658,-0.011529201237780598,0.048864301339032294,0.2940414526360668,0.900109766332379
10.837529375601596,1.8747849246173183,7.51778337746267,-0.009724940197701658,-0.011529201237780598,0.048864301339032294,0.28485674847945913,0.8940783796528581
10.827804435403895,1.8632557233795377,7.566647678801702,-0.009724940197701658,-0.011529201237780598,0.048864301339032294,0.2886064496979062,0.8887824967393818
10.818079495206193,1.8517265221417571,7.615511980140734,-0.009724940197701658,-0.011529201237780598,0.048864301339032294,0.2933852892813284,0.8962633058333331
10.808354555008492,1.8401973209039766,7.664376281479766,-0.009724940197701658,-0.011529201237780598,0.048864301339032294,0.2851334007428064,0.9107122710035606
10.79862961481079,1.828668119666196,7.7132405828187975,-0.009724940197701658,-0.011529201237780598,0.048864301339032294,0.2761131117647671,0.9162061345430552
10.78890467461309,1.8171389184284155,7.7621048841578295,-0.009724940197701658,-0.011529201237780598,0.048864301339032294,0.27172266140778306,0.9284033879800409
10.779179734415388,1.805609717190635,7.8109691854968615,-0.009724940197701658,-0.011529201237780598,0.048864301339032294,0.2726905005318995,0.9227566497190084
10.769454794217687,1.7940805159528543,7.8598334868358934,-0.009724940197701658,-0.011529201237780598,0.048864301339032294,0.2706486039027503,0.9205505506511786
10.759729854019985,1.7825513147150738,7.908697788174925,-0.009724940197701658,-0.011529201237780598,0.048864301339032294,0.2668086900887628,0.9239157531740572
10.750004913822284,1.7710221134772932,7.957562089513957,-0.009724940197701658,-0.011529201237780598,0.048864301339032294,0.2637389113383481,0.9187136198654718
10.740279973624583,1.7594929122395127,8.00642639085299,-0.009724940197701658,-0.011529201237780598,0.048864301339032294,0.2649223426339519,0.917414775820589
10.730555033426882,1.747963711001732,8.055290692192022,-0.009724940197701658,-0.011529201237780598,0.048864301339032294,0.2592070033657621,0.9221277265532658
10.72083009322918,1.7364345097639515,8.104154993531054,-0.009724940197701658,-0.011529201237780598,0.048864301339032294,0.25812576142702365,0.94063352127782
10.711105153031479,1.724905308526171,8.153019294870086,-0.009724940197701658,-0.011529201237780598,0.048864301339032294,0.2663068535851267,0.9447195667829092
10.701380212833778,1.7133761072883904,8.201883596209118,-0.009724940197701658,-0.011529201237780598,0.048864301339032294,0.2738614027403613,0.9348934340419377
10.691655272636076,1.7018469060506098,8.25074789754815,-0.009724940197701658,-0.011529201237780598,0.048864301339032294,0.2725720577457203,0.9161391045267488
10.681930332438375,1.6903177048128293,8.299612198887182,-0.009724940197701658,-0.011529201237780598,0.048864301339032294,0.27750011848401707,0.9158694944974133
10.672205392240674,1.6787885035750487,8.348476500226214,-0.009724940197701658,-0.011529201237780598,0.048864301339032294,0.2782969920855283,0.9248898779109582
10.662480452042972,1.6672593023372682,8.397340801565246,-0.009724940197701658,-0.011529201237780598,0.048864301339032294,0.28420749323614136,0.924233345157947
10.652755511845271,1.6557301010994876,8.446205102904278,-0.009724940197701658,-0.011529201237780598,0.048864301339032294,0.2811049933372973,0.9216811155537664
10.64303057164757,1.644200899861707,8.49506940424331,-0.009724940197701658,-0.011529201237780598,0.048864301339032294,0.27515970608899726,0.9307182013865438
10.633305631449868,1.6326716986239265,8.543933705582342,-0.009724940197701658,-0.011529201237780598,0.048864301339032294,0.27196133585609145,0.937107437127465
10.623580691252167,1.621142497386146,8.592798006921374,-0.009724940197701658,-0.011529201237780598,0.048864301339032294,0.2765498886825339,0.9147337549289088
10.613855751054466,1.6096132961483653,8.641662308260406,-0.009724940197701658,-0.011529201237780598,0.048864301339032294,0.2725920100959923,0.9148076570475566
10.604130810856764,1.5980840949105848,8.690526609599438,-0.009724940197701658,-0.011529201237780598,0.048864301339032294,0.2739309611657988,0.9067095016288921
10.594405870659063,1.5865548936728042,8.73939091093847,-0.009724940197701658,-0.011529201237780598,0.048864301339032294,0.26619746835013813,0.904531187785295
10.584680930461362,1.5750256924350237,8.788255212277502,-0.009724940197701658,-0.011529201237780598,0.048864301339032294,0.2646844098479258,0.8988428926080777
10.57495599026366,1.563496491197243,8.837119513616534,-0.009724940197701658,-0.011529201237780598,0.048864301339032294,0.26220750908753815,0.902573816167642
10.56523105006596,1.5519672899594625,8.885983814955566,-0.009724940197701658,-0.011529201237780598,0.048864301339032294,0.2615784387337017,0.8838229756166768
10.555506109868258,1.540438088721682,8.934848116294598,-0.009724940197701658,-0.011529201237780598,0.048864301339032294,0.26230843387374314,0.891819231082843
10.545781169670557,1.5289088874839014,8.98371241763363,-0.009724940197701658,-0.011529201237780598,0.048864301339032294,0.2569885997307528,0.8974414071393679
10.536056229472855,1.5173796862461209,9.032576718972662,-0.009724940197701658,-0.011529201237780598,0.048864301339032294,0.2535681780091017,0.8979848043714763
10.526331289275154,1.5058504850083403,9.081441020311694,-0.009724940197701658,-0.011529201237780598,0.048864301339032294,0.25317921120083164,0.8979487295569831
10.516606349077453,1.4943212837705597,9.130305321650726,-0.009724940197701658,-0.011529201237780598,0.048864301339032294,0.2568891406190627,0.8885981510597075
10.506881408879751,1.4827920825327792,9.179169622989757,-0.009724940197701658,-0.011529201237780598,0.048864301339032294,0.2604516899248408,0.8838475459575743
10.49715646868205,1.4712628812949986,9.22803392432879,-0.009724940197701658,-0.011529201237780598,0.048864301339032294,0.256058685247775,0.8856032169590131
10.487431528484349,1.459733680057218,9.276898225667821,-0.009724940197701658,-0.011529201237780598,0.048864301339032294,0.2586634523092599,0.9046212239514758
10.477706588286647,1.4482044788194375,9.325762527006853,-0.009724940197701658,-0.011529201237780598,0.048864301339032294,0.25813766607136457,0.9103607487274024
10.467981648088946,1.436675277581657,9.374626828345885,-0.009724940197701658,-0.011529201237780598,0.048864301339032294,0.26350089087275613,0.905706245247398
10.458256707891245,1.4251460763438764,9.423491129684917,-0.009724940197701658,-0.011529201237780598,0.048864301339032294,0.2614528924906552,0.9137147935614626
10.448531767693543,1.4136168751060958,9.47235543102395,-0.009724940197701658,-0.011529201237780598,0.048864301339032294,0.26304058486757637,0.9008888163642416
10.438806827495842,1.4020876738683152,9.521219732362981,-0.009724940197701658,-0.011529201237780598,0.048864301339032294,0.2717144948141807,0.8960949008339465
10.42908188729814,1.3905584726305347,9.570084033702013,-0.009724940197701658,-0.011529201237780598,0.048864301339032294,0.2730002856980732,0.899657578847099
10.41935694710044,1.379029271392754,9.618948335041045,-0.009724940197701658,-0.011529201237780598,0.048864301339032294,0.2644966853915239,0.8827670719516206
10.409632006902738,1.3675000701549735,9.667812636380077,-0.009724940197701658,-0.011529201237780598,0.048864301339032294,0.2642851701476945,0.8978167764825066
10.399907066705037,1.355970868917193,9.71667693771911,-0.009724940197701658,-0.011529201237780598,0.048864301339032294,0.2667101530893578,0.9017897338009467
10.390182126507336,1.3444416676794124,9.765541239058141,-0.009724940197701658,-0.011529201237780598,0.048864301339032294,0.26519443121706027,0.9136997251405291
10.380457186309634,1.3329124664416319,9.814405540397173,-0.009724940197701658,-0.011529201237780598,0.048864301339032294,0.2631602484298102,0.9052636792410375
10.370732246111933,1.3213832652038513,9.863269841736205,-0.009724940197701658,-0.011529201237780598,0.048864301339032294,0.2613023393144948,0.8978652639456408
10.361007305914232,1.3098540639660707,9.912134143075237,-0.009724940197701658,-0.011529201237780598,0.048864301339032294,0.2630937481226083,0.9030013234782214
10.35128236571653,1.2983248627282902,9.960998444414269,-0.009724940197701658,-0.011529201237780598,0.048864301339032294,0.2618131549908758,0.9048510134962489
10.326997063720585,1.2931859976492694,9.966936871301906,-0.02428530199594599,-0.005138865079020655,0.0059384268876369875,0.2658017530068149,0.9195865769323656
10.30271176172464,1.2880471325702487,9.972875298189543,-0.02428530199594599,-0.005138865079020655,0.0059384268876369875,0.25041524184243324,0.910405180491395
10.278426459728694,1.282908267491228,9.97881372507718,-0.02428530199594599,-0.005138865079020655,0.0059384268876369875,0.2439053760152633,0.9131333187120786
10.254141157732748,1.2777694024122073,9.984752151964816,-0.02428530199594599,-0.005138865079020655,0.0059384268876369875,0.24835639291836858,0.9154088010340024
10.229855855736803,1.2726305373331865,9.990690578852453,-0.02428530199594599,-0.005138865079020655,0.0059384268876369875,0.24929994091631485,0.9115092107863447
10.205570553740857,1.2674916722541658,9.99662900574009,-0.02428530199594599,-0.005138865079020655,0.0059384268876369875,0.25834591888817127,0.9089229947075003
10.13805016508239,1.264247736169313,9.947894933164182,-0.06752038865846768,-0.0032439360848528073,-0.048734072575908075,0.25301610449793804,0.8970773753803389
10.070529776423923,1.2610038000844601,9.899160860588275,-0.06752038865846768,-0.0032439360848528073,-0.048734072575908075,0.24801272846547434,0.8995990067784
10.003009387765456,1.2577598639996073,9.850426788012367,-0.06752038865846768,-0.0032439360848528073,-0.048734072575908075,0.24560013039016815,0.8954175634840611
9.935488999106989,1.2545159279147544,9.80169271543646,-0.06752038865846768,-0.0032439360848528073,-0.048734072575908075,0.24328443595003915,0.8864500667785347
9.867968610448521,1.2512719918299016,9.752958642860552,-0.06752038865846768,-0.0032439360848528073,-0.048734072575908075,0.23551457431512632,0.8998837144994746
9.800448221790054,1.2480280557450487,9.704224570284644,-0.06752038865846768,-0.0032439360848528073,-0.048734072575908075,0.23950377422981303,0.8948281977665713
9.732927833131587,1.2447841196601959,9.655490497708737,-0.06752038865846768,-0.0032439360848528073,-0.048734072575908075,0.23779583858176606,0.8987384810869457
9.66540744447312,1.241540183575343,9.60675642513283,-0.06752038865846768,-0.0032439360848528073,-0.048734072575908075,0.23946650798233188,0.8980883784741754
9.597887055814653,1.2382962474904902,9.558022352556922,-0.06752038865846768,-0.0032439360848528073,-0.048734072575908075,0.2390773825459999,0.9024288929723685
9.530366667156185,1.2350523114056373,9.509288279981014,-0.06752038865846768,-0.0032439360848528073,-0.048734072575908075,0.23553808891442857,0.9069424086085951
9.462846278497718,1.2318083753207845,9.460554207405107,-0.06752038865846768,-0.0032439360848528073,-0.048734072575908075,0.24503873768238918,0.894754504159769
9.39532588983925,1.2285644392359316,9.411820134829199,-0.06752038865846768,-0.0032439360848528073,-0.048734072575908075,0.2517621250794683,0.8780016634817576
9.327805501180784,1.2253205031510788,9.363086062253291,-0.06752038865846768,-0.0032439360848528073,-0.048734072575908075,0.2524576176746067,0.8895559502001456
9.260285112522316,1.222076567066226,9.314351989677384,-0.06752038865846768,-0.0032439360848528073,-0.048734072575908075,0.25029968195636443,0.8918936419780309
9.19276472386385,1.218832630981373,9.265617917101476,-0.06752038865846768,-0.0032439360848528073,-0.048734072575908075,0.2357250533321588,0.8729829835484314
9.125244335205382,1.2155886948965202,9.216883844525569,-0.06752038865846768,-0.0032439360848528073,-0.048734072575908075,0.23618296860214028,0.8666716102437101
9.057723946546915,1.2123447588116674,9.168149771949661,-0.06752038865846768,-0.0032439360848528073,-0.048734072575908075,0.2341537653908011,0.8639736193098586
8.990203557888448,1.2091008227268145,9.119415699373754,-0.06752038865846768,-0.0032439360848528073,-0.048734072575908075,0.2279641053824415,0.8718952673228846
8.92268316922998,1.2058568866419617,9.070681626797846,-0.06752038865846768,-0.0032439360848528073,-0.048734072575908075,0.21993636646043305,0.861008482968576
8.855162780571513,1.2026129505571088,9.021947554221939,-0.06752038865846768,-0.0032439360848528073,-0.048734072575908075,0.21934375638676798,0.8565015413072439
8.787642391913046,1.199369014472256,8.973213481646031,-0.06752038865846768,-0.0032439360848528073,-0.048734072575908075,0.21745525801928045,0.8547933490545796
8.720122003254579,1.1961250783874031,8.924479409070123,-0.06752038865846768,-0.0032439360848528073,-0.048734072575908075,0.2164984491465955,0.8512698709478634
8.652601614596112,1.1928811423025503,8.875745336494216,-0.06752038865846768,-0.0032439360848528073,-0.048734072575908075,0.22024290245729394,0.839289548351295
8.585081225937644,1.1896372062176974,8.827011263918308,-0.06752038865846768,-0.0032439360848528073,-0.048734072575908075,0.22241651399238346,0.8328185766114807
8.517560837279177,1.1863932701328446,8.7782771913424,-0.06752038865846768,-0.0032439360848528073,-0.048734072575908075,0.21697445181838548,0.8204002426832656
8.45004044862071,1.1831493340479917,8.729543118766493,-0.06752038865846768,-0.0032439360848528073,-0.048734072575908075,0.2171075760827822,0.8253434406920442
8.382520059962243,1.1799053979631389,8.680809046190586,-0.06752038865846768,-0.0032439360848528073,-0.048734072575908075,0.2196396818682786,0.8182042747024735
8.314999671303775,1.176661461878286,8.632074973614678,-0.06752038865846768,-0.0032439360848528073,-0.048734072575908075,0.2222737357919442,0.827479650757187
8.247479282645308,1.1734175257934332,8.58334090103877,-0.06752038865846768,-0.0032439360848528073,-0.048734072575908075,0.22819592374617867,0.8178227168297926
8.179958893986841,1.1701735897085803,8.534606828462863,-0.06752038865846768,-0.0032439360848528073,-0.048734072575908075,0.2318748364268651,0.8230913288370616
8.112438505328374,1.1669296536237275,8.485872755886955,-0.06752038865846768,-0.0032439360848528073,-0.048734072575908075,0.23377908461440852,0.8228806539638468
8.044918116669907,1.1636857175388746,8.437138683311048,-0.06752038865846768,-0.0032439360848528073,-0.048734072575908075,0.24249264648893135,0.8289881337231529
7.9773977280114385,1.1604417814540218,8.38840461073514,-0.06752038865846768,-0.0032439360848528073,-0.048734072575908075,0.24317647935073178,0.8410962624179996
7.90987733935297,1.157197845369169,8.339670538159233,-0.06752038865846768,-0.0032439360848528073,-0.048734072575908075,0.2435168255152945,0.8477809430320657
7.842356950694502,1.153953909284316,8.290936465583325,-0.06752038865846768,-0.0032439360848528073,-0.048734072575908075,0.2490114742029026,0.8513818477874814
7.774836562036034,1.1507099731994632,8.242202393007418,-0.06752038865846768,-0.0032439360848528073,-0.048734072575908075,0.24918034502698316,0.865687428211362
7.707316173377566,1.1474660371146104,8.19346832043151,-0.06752038865846768,-0.0032439360848528073,-0.048734072575908075,0.2485216001268529,0.8777581617856616
7.639795784719098,1.1442221010297575,8.144734247855602,-0.06752038865846768,-0.0032439360848528073,-0.048734072575908075,0.2519251978922487,0.8588238685958027
7.57227539606063,1.1409781649449047,8.096000175279695,-0.06752038865846768,-0.0032439360848528073,-0.048734072575908075,0.24700420676646934,0.8606871209519256
7.504755007402162,1.1377342288600518,8.047266102703787,-0.06752038865846768,-0.0032439360848528073,-0.048734072575908075,0.24971320735506478,0.8483444398240038
7.437234618743694,1.134490292775199,7.998532030127879,-0.06752038865846768,-0.0032439360848528073,-0.048734072575908075,0.2519264964924545,0.8619871518827289
7.369714230085226,1.1312463566903461,7.94979795755197,-0.06752038865846768,-0.0032439360848528073,-0.048734072575908075,0.2581734767496808,0.8699022002518144
7.3021938414267575,1.1280024206054933,7.901063884976062,-0.06752038865846768,-0.0032439360848528073,-0.048734072575908075,0.25661415718841524,0.8855727511393787
7.234673452768289,1.1247584845206404,7.8523298124001535,-0.06752038865846768,-0.0032439360848528073,-0.048734072575908075,0.25185531920978643,0.8908578805312988
7.167153064109821,1.1215145484357876,7.803595739824245,-0.06752038865846768,-0.0032439360848528073,-0.048734072575908075,0.24441391816561375,0.8930705627896743
7.099632675451353,1.1182706123509347,7.754861667248337,-0.06752038865846768,-0.0032439360848528073,-0.048734072575908075,0.24259827167806655,0.8853633022650943
7.032112286792885,1.1150266762660819,7.706127594672428,-0.06752038865846768,-0.0032439360848528073,-0.048734072575908075,0.24358162194997185,0.9007846027890458
6.964591898134417,1.111782740181229,7.65739352209652,-0.06752038865846768,-0.0032439360848528073,-0.048734072575908075,0.24624665931045273,0.9167582654370678
6.897071509475949,1.1085388040963762,7.608659449520611,-0.06752038865846768,-0.0032439360848528073,-0.048734072575908075,0.242242077939357,0.922241332719414
6.829551120817481,1.1052948680115233,7.559925376944703,-0.06752038865846768,-0.0032439360848528073,-0.048734072575908075,0.23366988348483336,0.9410610114183491
6.762030732159013,1.1020509319266705,7.511191304368794,-0.06752038865846768,-0.0032439360848528073,-0.048734072575908075,0.2290122482580002,0.9309534732531553
6.694510343500545,1.0988069958418176,7.462457231792886,-0.06752038865846768,-0.0032439360848528073,-0.048734072575908075,0.2378475125613624,0.9155273703920652
6.6269899548420765,1.0955630597569648,7.413723159216977,-0.06752038865846768,-0.0032439360848528073,-0.048734072575908075,0.23861980463762186,0.9254572539624373
6.559469566183608,1.092319123672112,7.364989086641069,-0.06752038865846768,-0.0032439360848528073,-0.048734072575908075,0.23002657295784498,0.9206850214551263
6.49194917752514,1.089075187587259,7.3162550140651605,-0.06752038865846768,-0.0032439360848528073,-0.048734072575908075,0.23317955705054655,0.9401446176383845
6.424428788866672,1.0858312515024062,7.267520941489252,-0.06752038865846768,-0.0032439360848528073,-0.048734072575908075,0.23647738259979914,0.9369883919659855
6.356908400208204,1.0825873154175534,7.218786868913344,-0.06752038865846768,-0.0032439360848528073,-0.048734072575908075,0.23730367608835254,0.9468841289580882
6.289388011549736,1.0793433793327005,7.170052796337435,-0.06752038865846768,-0.0032439360848528073,-0.048734072575908075,0.23171770993395904,0.9530536937984367
6.221867622891268,1.0760994432478477,7.121318723761527,-0.06752038865846768,-0.0032439360848528073,-0.048734072575908075,0.24104520490142495,0.9778124313715862
6.1543472342328,1.0728555071629948,7.072584651185618,-0.06752038865846768,-0.0032439360848528073,-0.048734072575908075,0.24693580255837788,0.9788297861217135
6.086826845574332,1.069611571078142,7.02385057860971,-0.06752038865846768,-0.0032439360848528073,-0.048734072575908075,0.24715329237388234,0.9917955955104383
6.019306456915864,1.0663676349932891,6.975116506033801,-0.06752038865846768,-0.0032439360848528073,-0.048734072575908075,0.25228091817916815,0.9838483296464947
5.9517860682573955,1.0631236989084363,6.926382433457893,-0.06752038865846768,-0.0032439360848528073,-0.048734072575908075,0.24444905388783023,0.9924120037535256
5.884265679598927,1.0598797628235834,6.8776483608819845,-0.06752038865846768,-0.0032439360848528073,-0.048734072575908075,0.25325932146654073,1.010542945085954
5.816745290940459,1.0566358267387306,6.828914288306076,-0.06752038865846768,-0.0032439360848528073,-0.048734072575908075,0.26006268233919694,0.991089175191117
5.780014143576591,1.0465547165748879,6.887352611330677,-0.03673114736386797,-0.010081110163842636,0.05843832302460024,0.2598026480058776,1.0058165990584584
5.743282996212723,1.0364736064110451,6.945790934355277,-0.03673114736386797,-0.010081110163842636,0.05843832302460024,0.26655879378201025,1.00355780179544
5.7065518488488545,1.0263924962472024,7.004229257379878,-0.03673114736386797,-0.010081110163842636,0.05843832302460024,0.2563495802823206,1.011767873430364
5.669820701484986,1.0163113860833597,7.0626675804044785,-0.03673114736386797,-0.010081110163842636,0.05843832302460024,0.25446816055594396,1.0146890275750353
5.633089554121118,1.006230275919517,7.121105903429079,-0.03673114736386797,-0.010081110163842636,0.05843832302460024,0.25147693278965433,1.0184348941673638
5.59635840675725,0.9961491657556744,7.17954422645368,-0.03673114736386797,-0.010081110163842636,0.05843832302460024,0.25090632050153683,1.0237264939759505
5.559627259393381,0.9860680555918317,7.23798254947828,-0.03673114736386797,-0.010081110163842636,0.05843832302460024,0.24129148940903344,1.0412755579775554
5.522896112029513,0.9759869454279891,7.296420872502881,-0.03673114736386797,-0.010081110163842636,0.05843832302460024,0.23951493517807315,1.033471050992269
5.486164964665645,0.9659058352641465,7.354859195527482,-0.03673114736386797,-0.010081110163842636,0.05843832302460024,0.2391043696454122,1.0269545172308947
5.4494338173017765,0.9558247251003039,7.413297518552082,-0.03673114736386797,-0.010081110163842636,0.05843832302460024,0.24269486325511758,1.0413888351373086
5.412702669937908,0.9457436149364613,7.471735841576683,-0.03673114736386797,-0.010081110163842636,0.05843832302460024,0.23881837953552093,1.020329435853339
5.37597152257404,0.9356625047726187,7.530174164601283,-0.03673114736386797,-0.010081110163842636,0.05843832302460024,0.2343210790813756,1.0239874511486307
5.339240375210172,0.9255813946087761,7.588612487625884,-0.03673114736386797,-0.010081110163842636,0.05843832302460024,0.23233512486737473,1.021478785954866
5.302509227846303,0.9155002844449335,7.647050810650485,-0.03673114736386797,-0.010081110163842636,0.05843832302460024,0.22680377061436724,1.0344940082196952
5.265778080482435,0.9054191742810909,7.705489133675085,-0.03673114736386797,-0.010081110163842636,0.05843832302460024,0.22412445996520042,1.035813187177866
5.229046933118567,0.8953380641172483,7.763927456699686,-0.03673114736386797,-0.010081110163842636,0.05843832302460024,0.22642505875399296,1.0476045031544006
5.192315785754698,0.8852569539534056,7.8223657797242865,-0.03673114736386797,-0.010081110163842636,0.05843832302460024,0.22889156175661746,1.0456201487172536
5.15558463839083,0.875175843789563,7.880804102748887,-0.03673114736386797,-0.010081110163842636,0.05843832302460024,0.22527911015349594,1.0505903122382203
5.118853491026962,0.8650947336257204,7.939242425773488,-0.03673114736386797,-0.010081110163842636,0.05843832302460024,0.22750058216540214,1.0512996602299065
5.082122343663094,0.8550136234618778,7.997680748798088,-0.03673114736386797,-0.010081110163842636,0.05843832302460024,0.2282368637770824,1.0709026866648261
5.045391196299225,0.8449325132980352,8.056119071822689,-0.03673114736386797,-0.010081110163842636,0.05843832302460024,0.2287126740594564,1.0667210188744163
5.008660048935357,0.8348514031341926,8.114557394847289,-0.03673114736386797,-0.010081110163842636,0.05843832302460024,0.2317041615572753,1.0676452279997233
4.971928901571489,0.82477029297035,8.172995717871888,-0.03673114736386797,-0.010081110163842636,0.05843832302460024,0.23130280270447523,1.0628430434938578
4.93519775420762,0.8146891828065074,8.231434040896488,-0.03673114736386797,-0.010081110163842636,0.05843832302460024,0.235233258964319,1.072005601436532
4.898466606843752,0.8046080726426648,8.289872363921088,-0.03673114736386797,-0.010081110163842636,0.05843832302460024,0.22663249054289492,1.0679022647702767
4.861735459479884,0.7945269624788222,8.348310686945688,-0.03673114736386797,-0.010081110163842636,0.05843832302460024,0.22663812798731986,1.0563079604588197
4.8250043121160155,0.7844458523149795,8.406749009970287,-0.03673114736386797,-0.010081110163842636,0.05843832302460024,0.22840890058424487,1.0559239636713835
4.788273164752147,0.7743647421511369,8.465187332994887,-0.03673114736386797,-0.010081110163842636,0.05843832302460024,0.22743180600680496,1.0593048398154081
4.751542017388279,0.7642836319872943,8.523625656019487,-0.03673114736386797,-0.010081110163842636,0.05843832302460024,0.23129636540685394,1.0621794471672628
4.714810870024411,0.7542025218234517,8.582063979044086,-0.03673114736386797,-0.010081110163842636,0.05843832302460024,0.23324260438310074,1.0762076721258402
4.678079722660542,0.7441214116596091,8.640502302068686,-0.03673114736386797,-0.010081110163842636,0.05843832302460024,0.22716611751982918,1.0535441401135954
4.641348575296674,0.7340403014957665,8.698940625093286,-0.03673114736386797,-0.010081110163842636,0.05843832302460024,0.21892758951256897,1.0615588186731486
4.604617427932806,0.7239591913319239,8.757378948117886,-0.03673114736386797,-0.010081110163842636,0.05843832302460024,0.21773073926309056,1.0882809829984645
4.5678862805689375,0.7138780811680813,8.815817271142485,-0.03673114736386797,-0.010081110163842636,0.05843832302460024,0.229802719071729,1.0896373482175319
4.531155133205069,0.7037969710042387,8.874255594167085,-0.03673114736386797,-0.010081110163842636,0.05843832302460024,0.22557482052383304,1.0799856794198266
4.494423985841201,0.693715860840396,8.932693917191685,-0.03673114736386797,-0.010081110163842636,0.05843832302460024,0.2307625837597056,1.0700949658915817
4.457692838477333,0.6836347506765534,8.991132240216285,-0.03673114736386797,-0.010081110163842636,0.05843832302460024,0.23286677467640698,1.0766300302104612
4.420961691113464,0.6735536405127108,9.049570563240884,-0.03673114736386797,-0.010081110163842636,0.05843832302460024,0.2383710828772188,1.082030446041908
4.384230543749596,0.6634725303488682,9.108008886265484,-0.03673114736386797,-0.010081110163842636,0.05843832302460024,0.24260600915728597,1.0899264024988564
4.347499396385728,0.6533914201850256,9.166447209290084,-0.03673114736386797,-0.010081110163842636,0.05843832302460024,0.2352713457484218,1.090647524711065
4.3107682490218595,0.643310310021183,9.224885532314683,-0.03673114736386797,-0.010081110163842636,0.05843832302460024,0.22537975254689027,1.0842157150747604
4.274037101657991,0.6332291998573404,9.283323855339283,-0.03673114736386797,-0.010081110163842636,0.05843832302460024,0.21659849318659904,1.0782098213028877
4.237305954294123,0.6231480896934978,9.341762178363883,-0.03673114736386797,-0.010081110163842636,0.05843832302460024,0.22106867986376086,1.0792234767059472
4.200574806930255,0.6130669795296552,9.400200501388483,-0.03673114736386797,-0.010081110163842636,0.05843832302460024,0.21869882154626058,1.0875825337926222
4.163843659566386,0.6029858693658126,9.458638824413082,-0.03673114736386797,-0.010081110163842636,0.05843832302460024,0.21925564003257975,1.0734397769733293
4.127112512202518,0.5929047592019699,9.517077147437682,-0.03673114736386797,-0.010081110163842636,0.05843832302460024,0.2204130783019971,1.0723098197976362
4.09038136483865,0.5828236490381273,9.575515470462282,-0.03673114736386797,-0.010081110163842636,0.05843832302460024,0.22383639868268507,1.054030479023629
4.0536502174747815,0.5727425388742847,9.633953793486882,-0.03673114736386797,-0.010081110163842636,0.05843832302460024,0.2240384735191502,1.0571547269295327
4.016919070110913,0.5626614287104421,9.692392116511481,-0.03673114736386797,-0.010081110163842636,0.05843832302460024,0.2231093982840054,1.0390623241934867
3.9801879227470454,0.5525803185465995,9.750830439536081,-0.03673114736386797,-0.010081110163842636,0.05843832302460024,0.22725454807599907,1.0284098268676944
3.9434567753831775,0.5424992083827569,9.80926876256068,-0.03673114736386797,-0.010081110163842636,0.05843832302460024,0.23106284785193704,1.0367440486930852
3.9067256280193097,0.5324180982189143,9.86770708558528,-0.03673114736386797,-0.010081110163842636,0.05843832302460024,0.23698199984982934,1.0323473159063912
3.869994480655442,0.5223369880550717,9.92614540860988,-0.03673114736386797,-0.010081110163842636,0.05843832302460024,0.22954438578188502,1.0372413855995268
3.833263333291574,0.5122558778912291,9.98458373163448,-0.03673114736386797,-0.010081110163842636,0.05843832302460024,0.23227237217267305,1.0319788846004037
3.8303746368617486,0.5096386566361898,9.944438314149997,-0.002888696429825267,-0.0026172212550392682,-0.040145417484484185,0.22476393069842068,1.023672424636583
3.8274859404319233,0.5070214353811505,9.904292896665513,-0.002888696429825267,-0.0026172212550392682,-0.040145417484484185,0.2180380951085539,1.010224325889138
3.824597244002098,0.5044042141261112,9.86414747918103,-0.002888696429825267,-0.0026172212550392682,-0.040145417484484185,0.22238575876509561,1.0124371494209063
3.8217085475722725,0.501786992871072,9.824002061696547,-0.002888696429825267,-0.0026172212550392682,-0.040145417484484185,0.21693412774464546,1.0156175974885646
3.818819851142447,0.4991697716160327,9.783856644212063,-0.002888696429825267,-0.0026172212550392682,-0.040145417484484185,0.21653852316391872,0.9985085450119136
3.815931154712622,0.49655255036099344,9.74371122672758,-0.002888696429825267,-0.0026172212550392682,-0.040145417484484185,0.22024498586796504,0.9895293357570006
3.8130424582827964,0.49393532910595417,9.703565809243097,-0.002888696429825267,-0.0026172212550392682,-0.040145417484484185,0.22171595915614228,0.9922418787664742
3.810153761852971,0.4913181078509149,9.663420391758613,-0.002888696429825267,-0.0026172212550392682,-0.040145417484484185,0.21295775323184912,0.9965367122853004
3.8072650654231457,0.4887008865958756,9.62327497427413,-0.002888696429825267,-0.0026172212550392682,-0.040145417484484185,0.21926449231648926,0.9993945113925218
3.8043763689933203,0.48608366534083636,9.583129556789647,-0.002888696429825267,-0.0026172212550392682,-0.040145417484484185,0.22077836800011233,0.9995928383489489
3.801487672563495,0.4834664440857971,9.542984139305164,-0.002888696429825267,-0.0026172212550392682,-0.040145417484484185,0.21727646416215676,1.008408180568746
3.7985989761336696,0.4808492228307578,9.50283872182068,-0.002888696429825267,-0.0026172212550392682,-0.040145417484484185,0.22065169283863642,0.9988436207661928
3.7957102797038442,0.47823200157571855,9.462693304336197,-0.002888696429825267,-0.0026172212550392682,-0.040145417484484185,0.21718881003594495,0.9820972363031298
3.792821583274019,0.4756147803206793,9.422547886851714,-0.002888696429825267,-0.0026172212550392682,-0.040145417484484185,0.2174582683900131,0.980338083767355
3.7899328868441935,0.47299755906564,9.38240246936723,-0.002888696429825267,-0.0026172212550392682,-0.040145417484484185,0.2136174821151082,0.9891659064069911
3.787044190414368,0.47038033781060073,9.342257051882747,-0.002888696429825267,-0.0026172212550392682,-0.040145417484484185,0.21818146573731698,0.9987176531142146
3.7841554939845428,0.46776311655556146,9.302111634398264,-0.002888696429825267,-0.0026172212550392682,-0.040145417484484185,0.2213658982382274,0.9998597104777663
3.7812667975547174,0.4651458953005222,9.26196621691378,-0.002888696429825267,-0.0026172212550392682,-0.040145417484484185,0.21807773399548355,1.0025981356501303
3.778378101124892,0.4625286740454829,9.221820799429297,-0.002888696429825267,-0.0026172212550392682,-0.040145417484484185,0.22049605413316298,1.009117226842085
3.7754894046950667,0.45991145279044365,9.181675381944814,-0.002888696429825267,-0.0026172212550392682,-0.040145417484484185,0.23127855273372663,1.0109383474927944
3.7726007082652413,0.4572942315354044,9.14152996446033,-0.002888696429825267,-0.0026172212550392682,-0.040145417484484185,0.22825872385277543,1.0247840241424835
3.769712011835416,0.4546770102803651,9.101384546975847,-0.002888696429825267,-0.0026172212550392682,-0.040145417484484185,0.22566615047280444,1.0469501363079352
3.7668233154055906,0.45205978902532584,9.061239129491364,-0.002888696429825267,-0.0026172212550392682,-0.040145417484484185,0.2217750188705297,1.0169582449570302
3.763934618975765,0.44944256777028657,9.02109371200688,-0.002888696429825267,-0.0026172212550392682,-0.040145417484484185,0.22519006429379887,1.014282134149148
3.76104592254594,0.4468253465152473,8.980948294522397,-0.002888696429825267,-0.0026172212550392682,-0.040145417484484185,0.23115724764400353,1.018648847710413
3.7581572261161145,0.44420812526020803,8.940802877037914,-0.002888696429825267,-0.0026172212550392682,-0.040145417484484185,0.2254805255806497,1.0075732444683063
3.755268529686289,0.44159090400516876,8.90065745955343,-0.002888696429825267,-0.0026172212550392682,-0.040145417484484185,0.22141126511890954,0.9971027939575171
3.7523798332564637,0.4389736827501295,8.860512042068947,-0.002888696429825267,-0.0026172212550392682,-0.040145417484484185,0.2231388448697663,0.9937300306162098
3.7494911368266384,0.4363564614950902,8.820366624584464,-0.002888696429825267,-0.0026172212550392682,-0.040145417484484185,0.23015999848733443,0.9899184636510229
3.746602440396813,0.43373924024005095,8.78022120709998,-0.002888696429825267,-0.0026172212550392682,-0.040145417484484185,0.22586206234185383,0.9902635351128515
3.7437137439669876,0.4311220189850117,8.740075789615497,-0.002888696429825267,-0.0026172212550392682,-0.040145417484484185,0.23037465111779332,0.9812490221465296
3.7408250475371623,0.4285047977299724,8.699930372131014,-0.002888696429825267,-0.0026172212550392682,-0.040145417484484185,0.23347276611243276,0.9805249435871611
3.737936351107337,0.42588757647493314,8.65978495464653,-0.002888696429825267,-0.0026172212550392682,-0.040145417484484185,0.23946151658189083,0.9681991867929185
3.7350476546775115,0.42327035521989387,8.619639537162048,-0.002888696429825267,-0.0026172212550392682,-0.040145417484484185,0.23852890862107795,0.9787527971487576
3.732158958247686,0.4206531339648546,8.579494119677564,-0.002888696429825267,-0.0026172212550392682,-0.040145417484484185,0.2579050433425536,0.9711218171214525
3.729270261817861,0.4180359127098153,8.539348702193081,-0.002888696429825267,-0.0026172212550392682,-0.040145417484484185,0.2534452708138237,0.96383066373714
3.7263815653880354,0.41541869145477606,8.499203284708598,-0.002888696429825267,-0.0026172212550392682,-0.040145417484484185,0.24539830131485368,0.9648540201720537
3.72349286895821,0.4128014701997368,8.459057867224114,-0.002888696429825267,-0.0026172212550392682,-0.040145417484484185,0.24032485495915987,0.9737288598471132
3.7206041725283847,0.4101842489446975,8.418912449739631,-0.002888696429825267,-0.0026172212550392682,-0.040145417484484185,0.24215028299913738,0.9760621887456772
3.7177154760985593,0.40756702768965825,8.378767032255148,-0.002888696429825267,-0.0026172212550392682,-0.040145417484484185,0.24806120283538252,0.9649161593135762
3.714826779668734,0.404949806434619,8.338621614770664,-0.002888696429825267,-0.0026172212550392682,-0.040145417484484185,0.25196380008340263,0.9550109966842194
3.7119380832389086,0.4023325851795797,8.298476197286181,-0.002888696429825267,-0.0026172212550392682,-0.040145417484484185,0.25911524330688335,0.9495803655973742
3.7090493868090832,0.39971536392454043,8.258330779801698,-0.002888696429825267,-0.0026172212550392682,-0.040145417484484185,0.2581445121732417,0.9545455483835845
3.706160690379258,0.39709814266950116,8.218185362317215,-0.002888696429825267,-0.0026172212550392682,-0.040145417484484185,0.2527857733794983,0.9426724605670933
3.7032719939494325,0.3944809214144619,8.178039944832731,-0.002888696429825267,-0.0026172212550392682,-0.040145417484484185,0.24436608793953765,0.9271159474776239
3.700383297519607,0.3918637001594226,8.137894527348248,-0.002888696429825267,-0.0026172212550392682,-0.040145417484484185,0.24586747719208513,0.9484181796618899
3.697494601089782,0.38924647890438335,8.097749109863765,-0.002888696429825267,-0.0026172212550392682,-0.040145417484484185,0.24055377067710776,0.9486102488821023
3.6946059046599564,0.3866292576493441,8.057603692379281,-0.002888696429825267,-0.0026172212550392682,-0.040145417484484185,0.2459435402770958,0.9550709708110727
3.691717208230131,0.3840120363943048,8.017458274894798,-0.002888696429825267,-0.0026172212550392682,-0.040145417484484185,0.24392395016441754,0.9572440612759878
3.6888285118003057,0.38139481513926554,7.977312857410314,-0.002888696429825267,-0.0026172212550392682,-0.040145417484484185,0.2410421360215394,0.9671935576456805
3.6859398153704803,0.37877759388422627,7.93716743992583,-0.002888696429825267,-0.0026172212550392682,-0.040145417484484185,0.23377699983769912,0.96609612985109
3.683051118940655,0.376160372629187,7.897022022441345,-0.002888696429825267,-0.0026172212550392682,-0.040145417484484185,0.22673299797689697,0.9690613343535247
3.6801624225108296,0.37354315137414773,7.856876604956861,-0.002888696429825267,-0.0026172212550392682,-0.040145417484484185,0.22781625017954069,0.983705643978302
3.6772737260810042,0.37092593011910846,7.816731187472377,-0.002888696429825267,-0.0026172212550392682,-0.040145417484484185,0.22182966275159774,0.9737919030836554
3.674385029651179,0.3683087088640692,7.776585769987893,-0.002888696429825267,-0.0026172212550392682,-0.040145417484484185,0.21573675492566624,0.9745475475033121
3.6714963332213535,0.3656914876090299,7.736440352503409,-0.002888696429825267,-0.0026172212550392682,-0.040145417484484185,0.20786284678623798,0.9705741237303247
3.668607636791528,0.36307426635399065,7.6962949350189245,-0.002888696429825267,-0.0026172212550392682,-0.040145417484484185,0.2133481874483926,0.9766514560995332
3.6657189403617028,0.3604570450989514,7.65614951753444,-0.002888696429825267,-0.0026172212550392682,-0.040145417484484185,0.21849459997319112,0.9711521929731788
3.6628302439318774,0.3578398238439121,7.616004100049956,-0.002888696429825267,-0.0026172212550392682,-0.040145417484484185,0.22101788435552489,0.9863528466000121
3.659941547502052,0.35522260258887284,7.575858682565472,-0.002888696429825267,-0.0026172212550392682,-0.040145417484484185,0.21626459594945505,0.9825796196774647
3.6570528510722267,0.35260538133383357,7.535713265080988,-0.002888696429825267,-0.0026172212550392682,-0.040145417484484185,0.20657382329332516,0.9721853762957848
3.6541641546424013,0.3499881600787943,7.4955678475965035,-0.002888696429825267,-0.0026172212550392682,-0.040145417484484185,0.21004270809753509,0.9763008967104909
3.6309980060599503,0.35152404323515746,7.444588117002113,-0.023166148582451127,0.0015358831563631328,-0.050979730594390205,0.21688296483623135,0.9739229002793031
3.6078318574774992,0.3530599263915206,7.393608386407723,-0.023166148582451127,0.0015358831563631328,-0.050979730594390205,0.21483673646685109,0.9813522940676193
3.584665708895048,0.3545958095478838,7.342628655813333,-0.023166148582451127,0.0015358831563631328,-0.050979730594390205,0.2075396469934033,0.9763569065207234
3.561499560312597,0.35613169270424694,7.291648925218943,-0.023166148582451127,0.0015358831563631328,-0.050979730594390205,0.21065677092643187,0.9623290997216115
3.538333411730146,0.3576675758606101,7.2406691946245525,-0.023166148582451127,0.0015358831563631328,-0.050979730594390205,0.20370134642552531,0.948218444506765
3.515167263147695,0.35920345901697326,7.189689464030162,-0.023166148582451127,0.0015358831563631328,-0.050979730594390205,0.21163941989697468,0.9353453169140556
3.492001114565244,0.3607393421733364,7.138709733435772,-0.023166148582451127,0.0015358831563631328,-0.050979730594390205,0.20790597080526924,0.9396063878959938
3.468834965982793,0.3622752253296996,7.087730002841382,-0.023166148582451127,0.0015358831563631328,-0.050979730594390205,0.21368952382777193,0.939578684516651
3.445668817400342,0.36381110848606274,7.036750272246992,-0.023166148582451127,0.0015358831563631328,-0.050979730594390205,0.20830296622623767,0.945916149568583
3.422502668817891,0.3653469916424259,6.9857705416526015,-0.023166148582451127,0.0015358831563631328,-0.050979730594390205,0.2131791110762594,0.9609110397730516
3.39933652023544,0.36688287479878906,6.934790811058211,-0.023166148582451127,0.0015358831563631328,-0.050979730594390205,0.2102155697882673,0.9640424050065389
3.376170371652989,0.3684187579551522,6.883811080463821,-0.023166148582451127,0.0015358831563631328,-0.050979730594390205,0.20645817808508082,0.9359463668154018
3.353004223070538,0.3699546411115154,6.832831349869431,-0.023166148582451127,0.0015358831563631328,-0.050979730594390205,0.20473768665660974,0.9409180974242333
3.329838074488087,0.37149052426787854,6.781851619275041,-0.023166148582451127,0.0015358831563631328,-0.050979730594390205,0.21276078571869836,0.9384406931757571
3.306671925905636,0.3730264074242417,6.7308718886806504,-0.023166148582451127,0.0015358831563631328,-0.050979730594390205,0.19942090899100573,0.9250684250200999
3.283505777323185,0.37456229058060486,6.67989215808626,-0.023166148582451127,0.0015358831563631328,-0.050979730594390205,0.1873846015668475,0.9200068224237594
3.260339628740734,0.376098173736968,6.62891242749187,-0.023166148582451127,0.0015358831563631328,-0.050979730594390205,0.17971403898951158,0.9335997106176183
3.2371734801582828,0.3776340568933312,6.57793269689748,-0.023166148582451127,0.0015358831563631328,-0.050979730594390205,0.17675370426932777,0.9405552468522653
3.2140073315758317,0.37916994004969434,6.52695296630309,-0.023166148582451127,0.0015358831563631328,-0.050979730594390205,0.16888015009087198,0.9436532069341121
3.1908411829933807,0.3807058232060575,6.475973235708699,-0.023166148582451127,0.0015358831563631328,-0.050979730594390205,0.16776267625335217,0.9588289297083393
3.1676750344109297,0.38224170636242066,6.424993505114309,-0.023166148582451127,0.0015358831563631328,-0.050979730594390205,0.16445668469741226,0.950611079115959
3.1445088858284787,0.3837775895187838,6.374013774519919,-0.023166148582451127,0.0015358831563631328,-0.050979730594390205,0.1629279137167176,0.9337379664130755
3.1213427372460276,0.385313472675147,6.323034043925529,-0.023166148582451127,0.0015358831563631328,-0.050979730594390205,0.16453788015808615,0.9405065309113572
3.0981765886635766,0.38684935583151014,6.272054313331139,-0.023166148582451127,0.0015358831563631328,-0.050979730594390205,0.16627258381777316,0.9447797919430257
3.0750104400811256,0.3883852389878733,6.221074582736748,-0.023166148582451127,0.0015358831563631328,-0.050979730594390205,0.17079144984199585,0.9541872800939185
3.0518442914986745,0.38992112214423646,6.170094852142358,-0.023166148582451127,0.0015358831563631328,-0.050979730594390205,0.17469323303184597,0.9608214537485407
3.0286781429162235,0.3914570053005996,6.119115121547968,-0.023166148582451127,0.0015358831563631328,-0.050979730594390205,0.17067562515898974,0.9595632593958076
3.0055119943337725,0.3929928884569628,6.068135390953578,-0.023166148582451127,0.0015358831563631328,-0.050979730594390205,0.1614505810788359,0.9623467538502247
2.9823458457513214,0.39452877161332595,6.017155660359188,-0.023166148582451127,0.0015358831563631328,-0.050979730594390205,0.17089477433554362,0.9525915178321022
2.9591796971688704,0.3960646547696891,5.966175929764797,-0.023166148582451127,0.0015358831563631328,-0.050979730594390205,0.17089477433554362,0.95675911582903
2.9360135485864194,0.39760053792605227,5.915196199170407,-0.023166148582451127,0.0015358831563631328,-0.050979730594390205,0.168979497070341,0.9646239983764231
2.9128474000039684,0.3991364210824154,5.864216468576017,-0.023166148582451127,0.0015358831563631328,-0.050979730594390205,0.16144311911464704,0.959644826446127
2.8896812514215173,0.4006723042387786,5.813236737981627,-0.023166148582451127,0.0015358831563631328,-0.050979730594390205,0.15892003170926394,0.9691507286591028
2.8665151028390663,0.40220818739514175,5.762257007387237,-0.023166148582451127,0.0015358831563631328,-0.050979730594390205,0.18409453068856757,0.9547695737823393
2.8433489542566153,0.4037440705515049,5.711277276792846,-0.023166148582451127,0.0015358831563631328,-0.050979730594390205,0.18409453068856757,0.9531060610262668
2.8201828056741642,0.40527995370786807,5.660297546198456,-0.023166148582451127,0.0015358831563631328,-0.050979730594390205,0.18409453068856757,0.9455919089716375
2.797016657091713,0.40681583686423123,5.609317815604066,-0.023166148582451127,0.0015358831563631328,-0.050979730594390205,0.18409453068856757,0.9385240794488859
2.773850508509262,0.4083517200205944,5.558338085009676,-0.023166148582451127,0.0015358831563631328,-0.050979730594390205,0.18602184009994224,0.9267009230086766
2.750684359926811,0.40988760317695755,5.5073583544152855,-0.023166148582451127,0.0015358831563631328,-0.050979730594390205,0.18274515937469218,0.9290601321558826
2.72751821134436,0.4114234863333207,5.456378623820895,-0.023166148582451127,0.0015358831563631328,-0.050979730594390205,0.18274515937469218,0.9215257301419254
2.704352062761909,0.41295936948968387,5.405398893226505,-0.023166148582451127,0.0015358831563631328,-0.050979730594390205,0.19685533226496812,0.9284013588265678
2.681185914179458,0.41449525264604703,5.354419162632115,-0.023166148582451127,0.0015358831563631328,-0.050979730594390205,0.1970822607923174,0.9302517954371654
2.658019765597007,0.4160311358024102,5.303439432037725,-0.023166148582451127,0.0015358831563631328,-0.050979730594390205,0.1970822607923174,0.92484820050347
2.634853617014556,0.41756701895877335,5.2524597014433345,-0.023166148582451127,0.0015358831563631328,-0.050979730594390205,0.1970822607923174,0.9264757175906555
2.611687468432105,0.4191029021151365,5.201479970848944,-0.023166148582451127,0.0015358831563631328,-0.050979730594390205,0.21342167225117203,0.9306207907156762
2.588521319849654,0.42063878527149967,5.150500240254554,-0.023166148582451127,0.0015358831563631328,-0.050979730594390205,0.20710755568125172,0.9093064659255612
2.565355171267203,0.42217466842786283,5.099520509660164,-0.023166148582451127,0.0015358831563631328,-0.050979730594390205,0.20020509729328306,0.9149041102327004
2.542189022684752,0.423710551584226,5.048540779065774,-0.023166148582451127,0.0015358831563631328,-0.050979730594390205,0.21489507487578957,0.908172012821346
2.519022874102301,0.42524643474058915,4.9975610484713835,-0.023166148582451127,0.0015358831563631328,-0.050979730594390205,0.22269217203034689,0.8802918373762891
2.49585672551985,0.4267823178969523,4.946581317876993,-0.023166148582451127,0.0015358831563631328,-0.050979730594390205,0.2302443034911247,0.883266955426756
2.472690576937399,0.4283182010533155,4.895601587282603,-0.023166148582451127,0.0015358831563631328,-0.050979730594390205,0.2302443034911247,0.8930117960322322
2.4495244283549478,0.42985408420967863,4.844621856688213,-0.023166148582451127,0.0015358831563631328,-0.050979730594390205,0.2302443034911247,0.898345647257165
2.4263582797724967,0.4313899673660418,4.793642126093823,-0.023166148582451127,0.0015358831563631328,-0.050979730594390205,0.2302443034911247,0.893761643311813
2.4031921311900457,0.43292585052240495,4.7426623954994325,-0.023166148582451127,0.0015358831563631328,-0.050979730594390205,0.22596030740403075,0.8987437962325383
2.3800259826075947,0.4344617336787681,4.691682664905042,-0.023166148582451127,0.0015358831563631328,-0.050979730594390205,0.22596030740403075,0.9135780992431238
2.3568598340251437,0.4359976168351313,4.640702934310652,-0.023166148582451127,0.0015358831563631328,-0.050979730594390205,0.2557842006035289,0.920540524692557
2.3336936854426926,0.43753349999149443,4.589723203716262,-0.023166148582451127,0.0015358831563631328,-0.050979730594390205,0.2557842006035289,0.923024879688208
2.3105275368602416,0.4390693831478576,4.538743473121872,-0.023166148582451127,0.0015358831563631328,-0.050979730594390205,0.2557842006035289,0.9146447868311158
2.2873613882777906,0.44060526630422076,4.4877637425274814,-0.023166148582451127,0.0015358831563631328,-0.050979730594390205,0.2557842006035289,0.9233141070481612
2.2641952396953395,0.4421411494605839,4.436784011933091,-0.023166148582451127,0.0015358831563631328,-0.050979730594390205,0.2557842006035289,0.9267500009370279
2.2410290911128885,0.4436770326169471,4.385804281338701,-0.023166148582451127,0.0015358831563631328,-0.050979730594390205,0.2509147331403072,0.9289563111662783
2.2178629425304375,0.44521291577331024,4.334824550744311,-0.023166148582451127,0.0015358831563631328,-0.050979730594390205,0.27758794327349046,0.9297528300665738
2.1946967939479864,0.4467487989296734,4.283844820149921,-0.023166148582451127,0.0015358831563631328,-0.050979730594390205,0.27758794327349046,0.9205677996035991
2.1715306453655354,0.44828468208603656,4.23286508955553,-0.023166148582451127,0.0015358831563631328,-0.050979730594390205,0.2727069368470991,0.8974614720259351
2.1483644967830844,0.4498205652423997,4.18188535896114,-0.023166148582451127,0.0015358831563631328,-0.050979730594390205,0.2727069368470991,0.8938216432344204
2.1251983482006334,0.4513564483987629,4.13090562836675,-0.023166148582451127,0.0015358831563631328,-0.050979730594390205,0.2763944300807513,0.9140767892576475
2.1020321996181823,0.45289233155512604,4.07992589777236,-0.023166148582451127,0.0015358831563631328,-0.050979730594390205,0.28689421537386306,0.904999314078166
2.0788660510357313,0.4544282147114892,4.02894616717797,-0.023166148582451127,0.0015358831563631328,-0.050979730594390205,0.28689421537386306,0.8977470950553651
2.0556999024532803,0.45596409786785236,3.9779664365835794,-0.023166148582451127,0.0015358831563631328,-0.050979730594390205,0.28689421537386306,0.8909633253899979
2.0769813643760155,0.45785282984506187,3.9226136757960224,0.021281461922735105,0.0018887319772094991,-0.05535276078755702,0.2906360105295991,0.8938481105896077
2.098262826298751,0.4597415618222714,3.8672609150084654,0.021281461922735105,0.0018887319772094991,-0.05535276078755702,0.28835697493850126,0.8804537252942425
2.119544288221486,0.4616302937994809,3.8119081542209083,0.021281461922735105,0.0018887319772094991,-0.05535276078755702,0.30214937776627254,0.8600351525715411
2.1408257501442214,0.4635190257766904,3.7565553934333513,0.021281461922735105,0.0018887319772094991,-0.05535276078755702,0.30094669768599847,0.8559915463664602
2.1621072120669567,0.4654077577538999,3.7012026326457943,0.021281461922735105,0.0018887319772094991,-0.05535276078755702,0.2993248244601107,0.8469697243135033
2.183388673989692,0.46729648973110943,3.6458498718582373,0.021281461922735105,0.0018887319772094991,-0.05535276078755702,0.29814563210601236,0.8371774927686353
2.204670135912427,0.46918522170831894,3.5904971110706803,0.021281461922735105,0.0018887319772094991,-0.05535276078755702,0.3121925745525835,0.8361012602016716
2.2259515978351625,0.47107395368552846,3.5351443502831232,0.021281461922735105,0.0018887319772094991,-0.05535276078755702,0.3267858149363208,0.8235668911923207
2.2472330597578978,0.47296268566273797,3.479791589495566,0.021281461922735105,0.0018887319772094991,-0.05535276078755702,0.3231866379536081,0.8097673402949865
2.268514521680633,0.4748514176399475,3.424438828708009,0.021281461922735105,0.0018887319772094991,-0.05535276078755702,0.33459788249226774,0.7922698954995584
2.2897959836033683,0.476740149617157,3.369086067920452,0.021281461922735105,0.0018887319772094991,-0.05535276078755702,0.3352622915123557,0.7969821846222607
2.3110774455261036,0.4786288815943665,3.313733307132895,0.021281461922735105,0.0018887319772094991,-0.05535276078755702,0.3352622915123557,0.7961087838230476
2.332358907448839,0.480517613571576,3.258380546345338,0.021281461922735105,0.0018887319772094991,-0.05535276078755702,0.35427518532186875,0.8038135535625145
2.353640369371574,0.48240634554878553,3.203027785557781,0.021281461922735105,0.0018887319772094991,-0.05535276078755702,0.3513733077163991,0.8013422631617917
2.3749218312943094,0.48429507752599504,3.147675024770224,0.021281461922735105,0.0018887319772094991,-0.05535276078755702,0.3503476415493225,0.8153858364296401
2.3962032932170447,0.48618380950320456,3.092322263982667,0.021281461922735105,0.0018887319772094991,-0.05535276078755702,0.3503476415493225,0.8159499358222867
2.41748475513978,0.48807254148041407,3.03696950319511,0.021281461922735105,0.0018887319772094991,-0.05535276078755702,0.3639934345563359,0.838054692719903
2.4387662170625153,0.4899612734576236,2.981616742407553,0.021281461922735105,0.0018887319772094991,-0.05535276078755702,0.3617813427745207,0.8605620982984519
2.4600476789852506,0.4918500054348331,2.926263981619996,0.021281461922735105,0.0018887319772094991,-0.05535276078755702,0.3656459556590056,0.8834757867768054
2.481329140907986,0.4937387374120426,2.870911220832439,0.021281461922735105,0.0018887319772094991,-0.05535276078755702,0.3758860481433522,0.9067993923738348
2.502610602830721,0.4956274693892521,2.815558460044882,0.021281461922735105,0.0018887319772094991,-0.05535276078755702,0.4015459242439004,0.9305365493084112
2.5238920647534564,0.49751620136646163,2.760205699257325,0.021281461922735105,0.0018887319772094991,-0.05535276078755702,0.4015459242439004,0.9546908917994066
2.5451735266761917,0.49940493334367114,2.704852938469768,0.021281461922735105,0.0018887319772094991,-0.05535276078755702,0.4015459242439004,0.9792660540656929
2.566454988598927,0.5012936653208806,2.649500177682211,0.021281461922735105,0.0018887319772094991,-0.05535276078755702,0.4015459242439004,1.0042656703261412
2.5877364505216622,0.5031823972980901,2.594147416894654,0.021281461922735105,0.0018887319772094991,-0.05535276078755702,0.4015459242439004,1.0296933747996229
2.6090179124443975,0.5050711292752996,2.538794656107097,0.021281461922735105,0.0018887319772094991,-0.05535276078755702,0.40924602741923216,1.05555280170501
