theta,phi,z,dtheta,dphi,dz,ecg,eda
0.47945912261045587,0.8793908213032715,4.945683082968042,0.0,0.0,0.0,0.23713119262829202,0.4754220855079551
0.4693931638709029,0.8827152871390446,4.939569357700752,-0.010065958739552967,0.003324465835773014,-0.006113725267289387,0.23713119262829202,0.4754220855079551
0.45932720513134995,0.8860397529748176,4.933455632433462,-0.010065958739552967,0.003324465835773014,-0.006113725267289387,0.23713119262829202,0.4754220855079551
0.449261246391797,0.8893642188105907,4.927341907166173,-0.010065958739552967,0.003324465835773014,-0.006113725267289387,0.23713119262829202,0.4754220855079551
0.439195287652244,0.8926886846463638,4.921228181898883,-0.010065958739552967,0.003324465835773014,-0.006113725267289387,0.23713119262829202,0.4754220855079551
0.42912932891269107,0.8960131504821368,4.915114456631593,-0.010065958739552967,0.003324465835773014,-0.006113725267289387,0.23713119262829202,0.4754220855079551
0.4190633701731381,0.8993376163179099,4.909000731364303,-0.010065958739552967,0.003324465835773014,-0.006113725267289387,0.23713119262829202,0.4754220855079551
0.40899741143358515,0.9026620821536829,4.902887006097013,-0.010065958739552967,0.003324465835773014,-0.006113725267289387,0.23263423681305073,0.4754220855079551
0.3989314526940322,0.905986547989456,4.8967732808297235,-0.010065958739552967,0.003324465835773014,-0.006113725267289387,0.23324953481739463,0.4754220855079551
0.3888654939544792,0.909311013825229,4.890659555562434,-0.010065958739552967,0.003324465835773014,-0.006113725267289387,0.2581814928255376,0.4754220855079551
0.37879953521492626,0.9126354796610021,4.884545830295144,-0.010065958739552967,0.003324465835773014,-0.006113725267289387,0.2581814928255376,0.4754220855079551
0.3687335764753733,0.9159599454967752,4.878432105027854,-0.010065958739552967,0.003324465835773014,-0.006113725267289387,0.2540403276389684,0.4754220855079551
0.35866761773582034,0.9192844113325482,4.872318379760564,-0.010065958739552967,0.003324465835773014,-0.006113725267289387,0.2540403276389684,0.4754220855079551
0.3486016589962674,0.9226088771683213,4.866204654493274,-0.010065958739552967,0.003324465835773014,-0.006113725267289387,0.2500616960247947,0.4754220855079551
0.3385357002567144,0.9259333430040944,4.860090929225985,-0.010065958739552967,0.003324465835773014,-0.006113725267289387,0.2500616960247947,0.4754220855079551
0.32846974151716146,0.9292578088398674,4.853977203958695,-0.010065958739552967,0.003324465835773014,-0.006113725267289387,0.2500616960247947,0.4754220855079551
0.3184037827776085,0.9325822746756405,4.847863478691405,-0.010065958739552967,0.003324465835773014,-0.006113725267289387,0.2500616960247947,0.47709748855275813
0.30833782403805554,0.9359067405114135,4.841749753424115,-0.010065958739552967,0.003324465835773014,-0.006113725267289387,0.2500616960247947,0.47877694474622856
0.2982718652985026,0.9392312063471866,4.835636028156825,-0.010065958739552967,0.003324465835773014,-0.006113725267289387,0.2500616960247947,0.48046045898515066
0.2882059065589496,0.9425556721829597,4.8295223028895355,-0.010065958739552967,0.003324465835773014,-0.006113725267289387,0.24397245480329466,0.48214803616630864
0.27813994781939666,0.9458801380187327,4.823408577622246,-0.010065958739552967,0.003324465835773014,-0.006113725267289387,0.2384023400646826,0.483839681186487
0.2680739890798437,0.9492046038545058,4.817294852354956,-0.010065958739552967,0.003324465835773014,-0.006113725267289387,0.2384023400646826,0.48553539894247005
0.25800803034029074,0.9525290696902788,4.811181127087666,-0.010065958739552967,0.003324465835773014,-0.006113725267289387,0.24867540785110495,0.4872351943310419
0.24794207160073778,0.9558535355260519,4.805067401820376,-0.010065958739552967,0.003324465835773014,-0.006113725267289387,0.2742770392209311,0.48893907224898714
0.23787611286118482,0.959178001361825,4.7989536765530865,-0.010065958739552967,0.003324465835773014,-0.006113725267289387,0.2742770392209311,0.4906470375930899
0.22781015412163186,0.962502467197598,4.792839951285797,-0.010065958739552967,0.003324465835773014,-0.006113725267289387,0.2742770392209311,0.49235909526013466
0.2177441953820789,0.9658269330333711,4.786726226018507,-0.010065958739552967,0.003324465835773014,-0.006113725267289387,0.2742770392209311,0.4940752501469055
0.20767823664252594,0.9691513988691441,4.780612500751217,-0.010065958739552967,0.003324465835773014,-0.006113725267289387,0.2742770392209311,0.49579550715018694
0.19761227790297298,0.9724758647049172,4.774498775483927,-0.010065958739552967,0.003324465835773014,-0.006113725267289387,0.2742770392209311,0.4975198711667632
0.18754631916342002,0.9758003305406903,4.768385050216637,-0.010065958739552967,0.003324465835773014,-0.006113725267289387,0.2742770392209311,0.49924834709341875
0.17748036042386706,0.9791247963764633,4.762271324949348,-0.010065958739552967,0.003324465835773014,-0.006113725267289387,0.2742770392209311,0.5009809398269377
0.1674144016843141,0.9824492622122364,4.756157599682058,-0.010065958739552967,0.003324465835773014,-0.006113725267289387,0.2742770392209311,0.5027176542641046
0.15734844294476114,0.9857737280480094,4.750043874414768,-0.010065958739552967,0.003324465835773014,-0.006113725267289387,0.2742770392209311,0.5044584953017035
0.14728248420520818,0.9890981938837825,4.743930149147478,-0.010065958739552967,0.003324465835773014,-0.006113725267289387,0.2742770392209311,0.506203467836519
0.13721652546565521,0.9924226597195556,4.737816423880188,-0.010065958739552967,0.003324465835773014,-0.006113725267289387,0.2707817881357438,0.5079525767653351
0.12715056672610225,0.9957471255553286,4.7317026986128985,-0.010065958739552967,0.003324465835773014,-0.006113725267289387,0.27934212500574246,0.5097058269849364
0.1170846079865493,0.9990715913911017,4.725588973345609,-0.010065958739552967,0.003324465835773014,-0.006113725267289387,0.2728891807904303,0.5114632233921071
0.10701864924699633,1.0023960572268746,4.719475248078319,-0.010065958739552967,0.003324465835773014,-0.006113725267289387,0.28211562007383306,0.5132247708836316
0.09695269050744337,1.0057205230626476,4.713361522811029,-0.010065958739552967,0.003324465835773014,-0.006113725267289387,0.28845983863566566,0.5149904743562941
0.08688673176789041,1.0090449888984205,4.707247797543739,-0.010065958739552967,0.003324465835773014,-0.006113725267289387,0.2778569055565914,0.5167603387068791
0.07682077302833745,1.0123694547341935,4.701134072276449,-0.010065958739552967,0.003324465835773014,-0.006113725267289387,0.27660079409498983,0.5185343688321705
0.06675481428878449,1.0156939205699664,4.69502034700916,-0.010065958739552967,0.003324465835773014,-0.006113725267289387,0.27579405174159344,0.5203125696289531
0.056688855549231525,1.0190183864057394,4.68890662174187,-0.010065958739552967,0.003324465835773014,-0.006113725267289387,0.2695719209713151,0.5220949459940112
0.04662289680967856,1.0223428522415123,4.68279289647458,-0.010065958739552967,0.003324465835773014,-0.006113725267289387,0.2728124620344034,0.5238815028241287
0.03655693807012559,1.0256673180772853,4.67667917120729,-0.010065958739552967,0.003324465835773014,-0.006113725267289387,0.27021098244518477,0.5256722450160903
0.026490979330572623,1.0289917839130582,4.67056544594,-0.010065958739552967,0.003324465835773014,-0.006113725267289387,0.26457888309975475,0.5274671774666801
0.016425020591019655,1.0323162497488312,4.6644517206727105,-0.010065958739552967,0.003324465835773014,-0.006113725267289387,0.2687825454055768,0.5292663050726827
0.006359061851466688,1.0356407155846041,4.658337995405421,-0.010065958739552967,0.003324465835773014,-0.006113725267289387,0.2687825454055768,0.531069632730882
-0.0037068968880862793,1.038965181420377,4.652224270138131,-0.010065958739552967,0.003324465835773014,-0.006113725267289387,0.2693155203378645,0.5328771653380627
-0.013772855627639247,1.04228964725615,4.646110544870841,-0.010065958739552967,0.003324465835773014,-0.006113725267289387,0.2693155203378645,0.534688907791009
-0.023838814367192214,1.045614113091923,4.639996819603551,-0.010065958739552967,0.003324465835773014,-0.006113725267289387,0.2693155203378645,0.5365048649865051
-0.03390477310674518,1.048938578927696,4.633883094336261,-0.010065958739552967,0.003324465835773014,-0.006113725267289387,0.2693155203378645,0.5383250418213354
-0.04397073184629815,1.0522630447634689,4.627769369068972,-0.010065958739552967,0.003324465835773014,-0.006113725267289387,0.27218519865589264,0.5401494431922844
-0.054036690585851116,1.0555875105992418,4.621655643801682,-0.010065958739552967,0.003324465835773014,-0.006113725267289387,0.2648578280507774,0.5419780739961361
-0.06410264932540408,1.0589119764350148,4.615541918534392,-0.010065958739552967,0.003324465835773014,-0.006113725267289387,0.2648578280507774,0.5438109391296749
-0.07416860806495704,1.0622364422707877,4.609428193267102,-0.010065958739552967,0.003324465835773014,-0.006113725267289387,0.2612866699908033,0.5456480434896853
-0.08423456680451,1.0655609081065607,4.603314467999812,-0.010065958739552967,0.003324465835773014,-0.006113725267289387,0.2612866699908033,0.5474893919729517
-0.09430052554406296,1.0688853739423336,4.5972007427325225,-0.010065958739552967,0.003324465835773014,-0.006113725267289387,0.2612866699908033,0.5493349894762579
-0.10436648428361592,1.0722098397781066,4.591087017465233,-0.010065958739552967,0.003324465835773014,-0.006113725267289387,0.2670873266551086,0.5511848408963888
-0.11443244302316888,1.0755343056138795,4.584973292197943,-0.010065958739552967,0.003324465835773014,-0.006113725267289387,0.2670873266551086,0.5530389511301284
-0.12449840176272184,1.0788587714496525,4.578859566930653,-0.010065958739552967,0.003324465835773014,-0.006113725267289387,0.27792537474958673,0.5548973250742609
-0.1345643605022748,1.0821832372854254,4.572745841663363,-0.010065958739552967,0.003324465835773014,-0.006113725267289387,0.27792537474958673,0.556759967625571
-0.14463031924182776,1.0855077031211984,4.5666321163960735,-0.010065958739552967,0.003324465835773014,-0.006113725267289387,0.27792537474958673,0.5586268836808428
-0.15469627798138072,1.0888321689569713,4.560518391128784,-0.010065958739552967,0.003324465835773014,-0.006113725267289387,0.27648188890521774,0.5604980781368606
-0.16476223672093368,1.0921566347927443,4.554404665861494,-0.010065958739552967,0.003324465835773014,-0.006113725267289387,0.27648188890521774,0.5623735558904088
-0.17482819546048664,1.0954811006285172,4.548290940594204,-0.010065958739552967,0.003324465835773014,-0.006113725267289387,0.27648188890521774,0.5642533218382718
-0.1848941542000396,1.0988055664642902,4.542177215326914,-0.010065958739552967,0.003324465835773014,-0.006113725267289387,0.2789285369858139,0.5661373808772336
-0.19496011293959256,1.1021300323000631,4.536063490059624,-0.010065958739552967,0.003324465835773014,-0.006113725267289387,0.2789285369858139,0.568025737904079
-0.20502607167914552,1.105454498135836,4.529949764792335,-0.010065958739552967,0.003324465835773014,-0.006113725267289387,0.2789285369858139,0.5699183978155917
-0.21509203041869848,1.108778963971609,4.523836039525045,-0.010065958739552967,0.003324465835773014,-0.006113725267289387,0.2789285369858139,0.5718153655085565
-0.18761201748782902,1.1169973128328894,4.543773014275639,0.027480012930869456,0.00821834886128047,0.019936974750594083,0.2789285369858139,0.5737166458797578
-0.16013200455695956,1.1252156616941698,4.563709989026234,0.027480012930869456,0.00821834886128047,0.019936974750594083,0.2789285369858139,0.5756222438259795
-0.1326519916260901,1.1334340105554501,4.583646963776828,0.027480012930869456,0.00821834886128047,0.019936974750594083,0.2789285369858139,0.5775321642440061
-0.10517197869522063,1.1416523594167305,4.603583938527422,0.027480012930869456,0.00821834886128047,0.019936974750594083,0.2789285369858139,0.579446412030622
-0.07769196576435117,1.1498707082780109,4.623520913278017,0.027480012930869456,0.00821834886128047,0.019936974750594083,0.2721242537375026,0.5813649920826115
-0.05021195283348171,1.1580890571392912,4.643457888028611,0.027480012930869456,0.00821834886128047,0.019936974750594083,0.2721242537375026,0.5832879092967588
-0.022731939902612255,1.1663074060005716,4.663394862779206,0.027480012930869456,0.00821834886128047,0.019936974750594083,0.268721128115132,0.5852151685698483
0.004748073028257201,1.174525754861852,4.6833318375298,0.027480012930869456,0.00821834886128047,0.019936974750594083,0.26903761259966497,0.5871467747986644
0.03222808595912666,1.1827441037231323,4.7032688122803945,0.027480012930869456,0.00821834886128047,0.019936974750594083,0.2608845152860302,0.5890827328799914
0.05970809888999611,1.1909624525844127,4.723205787030989,0.027480012930869456,0.00821834886128047,0.019936974750594083,0.2608845152860302,0.5910230477106134
0.08718811182086557,1.199180801445693,4.743142761781583,0.027480012930869456,0.00821834886128047,0.019936974750594083,0.2608845152860302,0.5929677241873149
0.11466812475173502,1.2073991503069734,4.763079736532178,0.027480012930869456,0.00821834886128047,0.019936974750594083,0.2608845152860302,0.5949167672068804
0.14214813768260448,1.2156174991682538,4.783016711282772,0.027480012930869456,0.00821834886128047,0.019936974750594083,0.2608845152860302,0.5968701816660938
0.16962815061347394,1.2238358480295342,4.802953686033367,0.027480012930869456,0.00821834886128047,0.019936974750594083,0.2544303929535584,0.5988279724617397
0.1971081635443434,1.2320541968908145,4.822890660783961,0.027480012930869456,0.00821834886128047,0.019936974750594083,0.24790569508284993,0.6007901444906024
0.22458817647521287,1.240272545752095,4.842827635534555,0.027480012930869456,0.00821834886128047,0.019936974750594083,0.24790569508284993,0.6007901444906024
0.25206818940608233,1.2484908946133753,4.86276461028515,0.027480012930869456,0.00821834886128047,0.019936974750594083,0.24031561399973278,0.6007901444906024
0.27954820233695177,1.2567092434746556,4.882701585035744,0.027480012930869456,0.00821834886128047,0.019936974750594083,0.24031561399973278,0.6007901444906024
0.3070282152678212,1.264927592335936,4.902638559786339,0.027480012930869456,0.00821834886128047,0.019936974750594083,0.24107240789252757,0.6007901444906024
0.33450822819869064,1.2731459411972164,4.922575534536933,0.027480012930869456,0.00821834886128047,0.019936974750594083,0.24692199552731067,0.6007901444906024
0.3619882411295601,1.2813642900584967,4.9425125092875275,0.027480012930869456,0.00821834886128047,0.019936974750594083,0.24396413758373087,0.6007901444906024
0.3894682540604295,1.289582638919777,4.962449484038122,0.027480012930869456,0.00821834886128047,0.019936974750594083,0.24396413758373087,0.6007901444906024
0.41694826699129894,1.2978009877810575,4.982386458788716,0.027480012930869456,0.00821834886128047,0.019936974750594083,0.24396413758373087,0.6007901444906024
0.4444282799221684,1.3060193366423378,5.002323433539311,0.027480012930869456,0.00821834886128047,0.019936974750594083,0.24396413758373087,0.6007901444906024
0.4719082928530378,1.3142376855036182,5.022260408289905,0.027480012930869456,0.00821834886128047,0.019936974750594083,0.24396413758373087,0.6007901444906024
0.49938830578390725,1.3224560343648986,5.0421973830405,0.027480012930869456,0.00821834886128047,0.019936974750594083,0.24396413758373087,0.6007901444906024
0.5268683187147767,1.330674383226179,5.062134357791094,0.027480012930869456,0.00821834886128047,0.019936974750594083,0.2503971952010699,0.6007901444906024
0.5543483316456461,1.3388927320874593,5.082071332541688,0.027480012930869456,0.00821834886128047,0.019936974750594083,0.2503971952010699,0.6007901444906024
0.5818283445765156,1.3471110809487397,5.102008307292283,0.027480012930869456,0.00821834886128047,0.019936974750594083,0.2503971952010699,0.6007901444906024
0.609308357507385,1.35532942981002,5.121945282042877,0.027480012930869456,0.00821834886128047,0.019936974750594083,0.2503971952010699,0.6007901444906024
0.6367883704382544,1.3635477786713004,5.141882256793472,0.027480012930869456,0.00821834886128047,0.019936974750594083,0.2503971952010699,0.6007901444906024
0.6642683833691239,1.3717661275325808,5.161819231544066,0.027480012930869456,0.00821834886128047,0.019936974750594083,0.2503971952010699,0.6007901444906024
0.6917483962999933,1.3799844763938611,5.1817562062946605,0.027480012930869456,0.00821834886128047,0.019936974750594083,0.2503971952010699,0.6007901444906024
0.7192284092308627,1.3882028252551415,5.201693181045255,0.027480012930869456,0.00821834886128047,0.019936974750594083,0.2503971952010699,0.6007901444906024
0.7467084221617322,1.3964211741164219,5.221630155795849,0.027480012930869456,0.00821834886128047,0.019936974750594083,0.2503971952010699,0.6007901444906024
0.7741884350926016,1.4046395229777022,5.241567130546444,0.027480012930869456,0.00821834886128047,0.019936974750594083,0.2503971952010699,0.6007901444906024
0.801668448023471,1.4128578718389826,5.261504105297038,0.027480012930869456,0.00821834886128047,0.019936974750594083,0.2503971952010699,0.6007901444906024
0.8291484609543405,1.421076220700263,5.281441080047633,0.027480012930869456,0.00821834886128047,0.019936974750594083,0.24955070125450288,0.6007901444906024
0.8566284738852099,1.4292945695615433,5.301378054798227,0.027480012930869456,0.00821834886128047,0.019936974750594083,0.24815785638786492,0.6007901444906024
0.8841084868160793,1.4375129184228237,5.321315029548821,0.027480012930869456,0.00821834886128047,0.019936974750594083,0.24369326608408004,0.6007901444906024
0.9115884997469488,1.445731267284104,5.341252004299416,0.027480012930869456,0.00821834886128047,0.019936974750594083,0.24550441972577777,0.6007901444906024
0.9390685126778182,1.4539496161453844,5.36118897905001,0.027480012930869456,0.00821834886128047,0.019936974750594083,0.2436816353574176,0.6007901444906024
0.9665485256086876,1.4621679650066648,5.381125953800605,0.027480012930869456,0.00821834886128047,0.019936974750594083,0.24240522715953539,0.6007901444906024
0.9940285385395571,1.4703863138679452,5.401062928551199,0.027480012930869456,0.00821834886128047,0.019936974750594083,0.24096378807748473,0.6007901444906024
1.0215085514704265,1.4786046627292255,5.4209999033017935,0.027480012930869456,0.00821834886128047,0.019936974750594083,0.24369460481207428,0.6007901444906024
1.048988564401296,1.486823011590506,5.440936878052388,0.027480012930869456,0.00821834886128047,0.019936974750594083,0.2426509343142307,0.6007901444906024
1.0764685773321654,1.4950413604517863,5.460873852802982,0.027480012930869456,0.00821834886128047,0.019936974750594083,0.23827048038861762,0.6007901444906024
1.1039485902630348,1.5032597093130666,5.480810827553577,0.027480012930869456,0.00821834886128047,0.019936974750594083,0.24086093258281294,0.6007901444906024
1.1314286031939043,1.511478058174347,5.500747802304171,0.027480012930869456,0.00821834886128047,0.019936974750594083,0.24546784267318184,0.6007901444906024
1.1589086161247737,1.5196964070356274,5.520684777054766,0.027480012930869456,0.00821834886128047,0.019936974750594083,0.24234550517775688,0.6007901444906024
1.1863886290556431,1.5279147558969077,5.54062175180536,0.027480012930869456,0.00821834886128047,0.019936974750594083,0.24228437761200258,0.6007901444906024
1.2138686419865126,1.536133104758188,5.560558726555954,0.027480012930869456,0.00821834886128047,0.019936974750594083,0.24159158970525854,0.6007901444906024
1.241348654917382,1.5443514536194685,5.580495701306549,0.027480012930869456,0.00821834886128047,0.019936974750594083,0.2423258093920762,0.6007901444906024
1.2688286678482514,1.5525698024807488,5.600432676057143,0.027480012930869456,0.00821834886128047,0.019936974750594083,0.24365537445443258,0.6007901444906024
1.2963086807791209,1.5607881513420292,5.620369650807738,0.027480012930869456,0.00821834886128047,0.019936974750594083,0.237779841560182,0.6007901444906024
1.3237886937099903,1.5690065002033096,5.640306625558332,0.027480012930869456,0.00821834886128047,0.019936974750594083,0.23479486290769497,0.6007901444906024
1.3512687066408597,1.57722484906459,5.6602436003089265,0.027480012930869456,0.00821834886128047,0.019936974750594083,0.24079419591078924,0.6007901444906024
1.3787487195717292,1.5854431979258703,5.680180575059521,0.027480012930869456,0.00821834886128047,0.019936974750594083,0.23239474227203025,0.6007901444906024
1.4062287325025986,1.5936615467871507,5.700117549810115,0.027480012930869456,0.00821834886128047,0.019936974750594083,0.2349538177500165,0.6007901444906024
1.433708745433468,1.601879895648431,5.72005452456071,0.027480012930869456,0.00821834886128047,0.019936974750594083,0.2302372424438578,0.6007901444906024
1.4611887583643375,1.6100982445097114,5.739991499311304,0.027480012930869456,0.00821834886128047,0.019936974750594083,0.22913064948901465,0.6007901444906024
1.488668771295207,1.6183165933709918,5.759928474061899,0.027480012930869456,0.00821834886128047,0.019936974750594083,0.2313847956432686,0.6007901444906024
1.5161487842260764,1.6265349422322721,5.779865448812493,0.027480012930869456,0.00821834886128047,0.019936974750594083,0.23231653919146264,0.6007901444906024
1.5436287971569458,1.6347532910935525,5.799802423563087,0.027480012930869456,0.00821834886128047,0.019936974750594083,0.23229302484670886,0.6007901444906024
1.5711088100878152,1.6429716399548329,5.819739398313682,0.027480012930869456,0.00821834886128047,0.019936974750594083,0.23018817014586676,0.6007901444906024
1.5985888230186847,1.6511899888161132,5.839676373064276,0.027480012930869456,0.00821834886128047,0.019936974750594083,0.22798071484104346,0.5920003314827956
1.626068835949554,1.6594083376773936,5.859613347814871,0.027480012930869456,0.00821834886128047,0.019936974750594083,0.2314877429563498,0.5767399420475239
1.6535488488804235,1.667626686538674,5.879550322565465,0.027480012930869456,0.00821834886128047,0.019936974750594083,0.22875937504819321,0.5834830784977603
1.681028861811293,1.6758450353999543,5.8994872973160595,0.027480012930869456,0.00821834886128047,0.019936974750594083,0.22938927067926737,0.5917837931723465
1.7085088747421624,1.6840633842612347,5.919424272066654,0.027480012930869456,0.00821834886128047,0.019936974750594083,0.23250544768293718,0.5917033903070995
1.7920371530067798,1.6842286011225058,5.962818566413176,0.08352827826461731,0.00016521686127119402,0.04339429434652212,0.22904759991752788,0.5950025455659522
1.8755654312713972,1.684393817983777,6.006212860759699,0.08352827826461731,0.00016521686127119402,0.04339429434652212,0.2307148736924977,0.5973355117543623
1.9590937095360146,1.684559034845048,6.049607155106221,0.08352827826461731,0.00016521686127119402,0.04339429434652212,0.2309319996387203,0.5885562803456471
2.042621987800632,1.6847242517063192,6.093001449452744,0.08352827826461731,0.00016521686127119402,0.04339429434652212,0.23371035015844532,0.5890756191812223
2.1261502660652494,1.6848894685675904,6.136395743799266,0.08352827826461731,0.00016521686127119402,0.04339429434652212,0.23315580999605062,0.6053184990992657
2.1872205621854865,1.6786832509911347,6.155735180120112,0.06107029612023712,-0.006206217576455726,0.019339436320845654,0.23990671379845013,0.6025908112969126
2.2482908583057237,1.672477033414679,6.175074616440957,0.06107029612023712,-0.006206217576455726,0.019339436320845654,0.24344664343762112,0.5981073155988059
2.309361154425961,1.6662708158382233,6.194414052761803,0.06107029612023712,-0.006206217576455726,0.019339436320845654,0.23998516239241968,0.5824931581881605
2.370431450546198,1.6600645982617677,6.213753489082649,0.06107029612023712,-0.006206217576455726,0.019339436320845654,0.2407621275506326,0.5696226931948015
2.4315017466664353,1.653858380685312,6.233092925403494,0.06107029612023712,-0.006206217576455726,0.019339436320845654,0.24940789927388243,0.5694971497864795
2.4925720427866724,1.6476521631088563,6.25243236172434,0.06107029612023712,-0.006206217576455726,0.019339436320845654,0.25185930511133314,0.5675089437721621
2.5536423389069096,1.6414459455324006,6.271771798045186,0.06107029612023712,-0.006206217576455726,0.019339436320845654,0.24621821614704847,0.5842454327357985
2.614712635027147,1.635239727955945,6.291111234366031,0.06107029612023712,-0.006206217576455726,0.019339436320845654,0.2451925405488322,0.59547003374798
2.675782931147384,1.6290335103794893,6.310450670686877,0.06107029612023712,-0.006206217576455726,0.019339436320845654,0.2414880837878357,0.5935171340843536
2.736853227267621,1.6228272928030336,6.329790107007723,0.06107029612023712,-0.006206217576455726,0.019339436320845654,0.24113559137249999,0.6012365778750501
2.7979235233878583,1.616621075226578,6.349129543328568,0.06107029612023712,-0.006206217576455726,0.019339436320845654,0.23125237913659027,0.607934380326046
2.8589938195080955,1.6104148576501223,6.368468979649414,0.06107029612023712,-0.006206217576455726,0.019339436320845654,0.22552377420219122,0.6167787534874738
2.9200641156283327,1.6042086400736666,6.38780841597026,0.06107029612023712,-0.006206217576455726,0.019339436320845654,0.21937446029503274,0.6178852409854491
2.98113441174857,1.598002422497211,6.407147852291105,0.06107029612023712,-0.006206217576455726,0.019339436320845654,0.21795692826306304,0.6073091084185929
3.042204707868807,1.5917962049207552,6.426487288611951,0.06107029612023712,-0.006206217576455726,0.019339436320845654,0.220476452739791,0.605992027834575
3.103275003989044,1.5855899873442996,6.445826724932797,0.06107029612023712,-0.006206217576455726,0.019339436320845654,0.21958473670101242,0.6140046571064861
3.1643453001092814,1.579383769767844,6.465166161253642,0.06107029612023712,-0.006206217576455726,0.019339436320845654,0.2250808937211271,0.6223604329312403
3.2254155962295186,1.5731775521913882,6.484505597574488,0.06107029612023712,-0.006206217576455726,0.019339436320845654,0.2236737155918697,0.6194728413572587
3.2864858923497557,1.5669713346149325,6.503845033895334,0.06107029612023712,-0.006206217576455726,0.019339436320845654,0.21791848849778878,0.6043858843592673
3.347556188469993,1.5607651170384769,6.523184470216179,0.06107029612023712,-0.006206217576455726,0.019339436320845654,0.21261759796339658,0.6008311574250618
3.40862648459023,1.5545588994620212,6.542523906537025,0.06107029612023712,-0.006206217576455726,0.019339436320845654,0.20724682921481308,0.5843380146257422
3.4696967807104673,1.5483526818855655,6.561863342857871,0.06107029612023712,-0.006206217576455726,0.019339436320845654,0.20427252110212304,0.5822423795367331
3.5307670768307045,1.5421464643091098,6.581202779178716,0.06107029612023712,-0.006206217576455726,0.019339436320845654,0.20204773610800492,0.5884931087729642
3.5918373729509416,1.5359402467326542,6.600542215499562,0.06107029612023712,-0.006206217576455726,0.019339436320845654,0.2045636590429165,0.5839976828752518
3.652907669071179,1.5297340291561985,6.619881651820408,0.06107029612023712,-0.006206217576455726,0.019339436320845654,0.20299960444434342,0.5709227652884796
3.713977965191416,1.5235278115797428,6.6392210881412534,0.06107029612023712,-0.006206217576455726,0.019339436320845654,0.20661705108034864,0.5630043396819187
3.775048261311653,1.5173215940032871,6.658560524462099,0.06107029612023712,-0.006206217576455726,0.019339436320845654,0.2047997138067375,0.5529255757517497
3.8361185574318903,1.5111153764268315,6.677899960782945,0.06107029612023712,-0.006206217576455726,0.019339436320845654,0.20769935044715462,0.5544157573901702
3.8971888535521275,1.5049091588503758,6.6972393971037905,0.06107029612023712,-0.006206217576455726,0.019339436320845654,0.2049950972917561,0.554271280488238
3.9582591496723647,1.4987029412739201,6.716578833424636,0.06107029612023712,-0.006206217576455726,0.019339436320845654,0.1985390132082118,0.5473855561580631
4.019329445792602,1.4924967236974644,6.735918269745482,0.06107029612023712,-0.006206217576455726,0.019339436320845654,0.19904346736791273,0.5455739446402346
4.080399741912839,1.4862905061210088,6.7552577060663275,0.06107029612023712,-0.006206217576455726,0.019339436320845654,0.2117307844002928,0.5367300729694867
4.141470038033075,1.480084288544553,6.774597142387173,0.06107029612023712,-0.006206217576455726,0.019339436320845654,0.216608312465112,0.5449451787366005
4.202540334153312,1.4738780709680974,6.793936578708019,0.06107029612023712,-0.006206217576455726,0.019339436320845654,0.2162001292801964,0.552562522817809
4.263610630273549,1.4676718533916417,6.8132760150288645,0.06107029612023712,-0.006206217576455726,0.019339436320845654,0.21090925676544534,0.5426982389269359
4.3246809263937855,1.461465635815186,6.83261545134971,0.06107029612023712,-0.006206217576455726,0.019339436320845654,0.21108613846755772,0.5456349136907767
4.385751222514022,1.4552594182387304,6.851954887670556,0.06107029612023712,-0.006206217576455726,0.019339436320845654,0.21453348695728677,0.5363937897604102
4.446821518634259,1.4490532006622747,6.8712943239914015,0.06107029612023712,-0.006206217576455726,0.019339436320845654,0.20886771036230992,0.5276865351909792
4.507891814754496,1.442846983085819,6.890633760312247,0.06107029612023712,-0.006206217576455726,0.019339436320845654,0.21573797400663328,0.5181844561331121
4.5689621108747325,1.4366407655093634,6.909973196633093,0.06107029612023712,-0.006206217576455726,0.019339436320845654,0.20538521255171618,0.5205809510871436
4.630032406994969,1.4304345479329077,6.9293126329539385,0.06107029612023712,-0.006206217576455726,0.019339436320845654,0.2016807877611744,0.5399145019776346
4.691102703115206,1.424228330356452,6.948652069274784,0.06107029612023712,-0.006206217576455726,0.019339436320845654,0.20841642412756567,0.5542278273594996
4.752172999235443,1.4180221127799963,6.96799150559563,0.06107029612023712,-0.006206217576455726,0.019339436320845654,0.20237249268784333,0.5554570911061264
4.813243295355679,1.4118158952035407,6.9873309419164755,0.06107029612023712,-0.006206217576455726,0.019339436320845654,0.2059773431390895,0.556109840373232
4.874313591475916,1.405609677627085,7.006670378237321,0.06107029612023712,-0.006206217576455726,0.019339436320845654,0.20955441755563106,0.5554057836285494
4.935383887596153,1.3994034600506293,7.026009814558167,0.06107029612023712,-0.006206217576455726,0.019339436320845654,0.2127749590306375,0.549541587685339
4.99645418371639,1.3931972424741736,7.0453492508790125,0.06107029612023712,-0.006206217576455726,0.019339436320845654,0.2137651722502203,0.5346154808206677
5.057524479836626,1.386991024897718,7.064688687199858,0.06107029612023712,-0.006206217576455726,0.019339436320845654,0.2068584937069606,0.5402908522134527
5.118594775956863,1.3807848073212623,7.084028123520704,0.06107029612023712,-0.006206217576455726,0.019339436320845654,0.20656677118744665,0.5395038430784114
5.1796650720771,1.3745785897448066,7.1033675598415496,0.06107029612023712,-0.006206217576455726,0.019339436320845654,0.20594338062453937,0.5372846678021909
5.2407353681973365,1.368372372168351,7.122706996162395,0.06107029612023712,-0.006206217576455726,0.019339436320845654,0.20141352374006935,0.5420605504161689
5.301805664317573,1.3621661545918953,7.142046432483241,0.06107029612023712,-0.006206217576455726,0.019339436320845654,0.19278595238132956,0.5503155282667109
5.36287596043781,1.3559599370154396,7.161385868804087,0.06107029612023712,-0.006206217576455726,0.019339436320845654,0.18760984257524574,0.5608519934007873
5.423946256558047,1.349753719438984,7.180725305124932,0.06107029612023712,-0.006206217576455726,0.019339436320845654,0.19512429160399072,0.5518662756127123
5.4850165526782835,1.3435475018625282,7.200064741445778,0.06107029612023712,-0.006206217576455726,0.019339436320845654,0.20565640579225894,0.5460055847565449
5.54608684879852,1.3373412842860726,7.219404177766624,0.06107029612023712,-0.006206217576455726,0.019339436320845654,0.20347742969915875,0.5510135415955756
5.607157144918757,1.331135066709617,7.238743614087469,0.06107029612023712,-0.006206217576455726,0.019339436320845654,0.19564531246112504,0.5388954736409692
5.668227441038994,1.3249288491331612,7.258083050408315,0.06107029612023712,-0.006206217576455726,0.019339436320845654,0.19333283085568612,0.5555899834431623
5.72929773715923,1.3187226315567055,7.277422486729161,0.06107029612023712,-0.006206217576455726,0.019339436320845654,0.18769352988497967,0.5556847227607153
5.790368033279467,1.3125164139802499,7.296761923050006,0.06107029612023712,-0.006206217576455726,0.019339436320845654,0.1895101432785655,0.5439571930312247
5.851438329399704,1.3063101964037942,7.316101359370852,0.06107029612023712,-0.006206217576455726,0.019339436320845654,0.18405918415250072,0.556257272444876
5.912508625519941,1.3001039788273385,7.335440795691698,0.06107029612023712,-0.006206217576455726,0.019339436320845654,0.180792286182311,0.5708606208577155
5.973578921640177,1.2938977612508828,7.354780232012543,0.06107029612023712,-0.006206217576455726,0.019339436320845654,0.1872081095266165,0.5831954353044986
6.034649217760414,1.2876915436744272,7.374119668333389,0.06107029612023712,-0.006206217576455726,0.019339436320845654,0.19410809282401117,0.5799124590342105
6.095719513880651,1.2814853260979715,7.393459104654235,0.06107029612023712,-0.006206217576455726,0.019339436320845654,0.1873792380399948,0.5562713627060945
6.1567898100008875,1.2752791085215158,7.41279854097508,0.06107029612023712,-0.006206217576455726,0.019339436320845654,0.18872235383325217,0.5513881553210288
6.217860106121124,1.2690728909450602,7.432137977295926,0.06107029612023712,-0.006206217576455726,0.019339436320845654,0.19226019020792348,0.5570334680020016
6.278930402241361,1.2628666733686045,7.451477413616772,0.06107029612023712,-0.006206217576455726,0.019339436320845654,0.20212603779803867,0.5557464168622518
6.340000698361598,1.2566604557921488,7.470816849937617,0.06107029612023712,-0.006206217576455726,0.019339436320845654,0.19637201322706108,0.5563375481935476
6.4010709944818345,1.2504542382156931,7.490156286258463,0.06107029612023712,-0.006206217576455726,0.019339436320845654,0.1991953041861381,0.5762821999032458
6.462141290602071,1.2442480206392375,7.509495722579309,0.06107029612023712,-0.006206217576455726,0.019339436320845654,0.19191778616023386,0.5785728186215404
6.523211586722308,1.2380418030627818,7.528835158900154,0.06107029612023712,-0.006206217576455726,0.019339436320845654,0.20005416134849188,0.5634499221289447
6.584281882842545,1.231835585486326,7.548174595221,0.06107029612023712,-0.006206217576455726,0.019339436320845654,0.1954139207783941,0.5589392832613939
6.645352178962781,1.2256293679098704,7.567514031541846,0.06107029612023712,-0.006206217576455726,0.019339436320845654,0.19498652244568135,0.5644974090905513
6.706422475083018,1.2194231503334148,7.586853467862691,0.06107029612023712,-0.006206217576455726,0.019339436320845654,0.18487837131714382,0.5686060864538109
6.767492771203255,1.213216932756959,7.606192904183537,0.06107029612023712,-0.006206217576455726,0.019339436320845654,0.19057556835950562,0.5606224044305157
6.828563067323492,1.2070107151805034,7.625532340504383,0.06107029612023712,-0.006206217576455726,0.019339436320845654,0.18983516071568265,0.5744078872611895
6.889633363443728,1.2008044976040477,7.644871776825228,0.06107029612023712,-0.006206217576455726,0.019339436320845654,0.19302959344454615,0.5757963354964868
6.950703659563965,1.194598280027592,7.664211213146074,0.06107029612023712,-0.006206217576455726,0.019339436320845654,0.18969864500059183,0.5573679163995984
7.011773955684202,1.1883920624511364,7.68355064946692,0.06107029612023712,-0.006206217576455726,0.019339436320845654,0.18957048762630044,0.562244602382445
7.0728442518044385,1.1821858448746807,7.702890085787765,0.06107029612023712,-0.006206217576455726,0.019339436320845654,0.19937956095242723,0.557422685861665
7.133914547924675,1.175979627298225,7.722229522108611,0.06107029612023712,-0.006206217576455726,0.019339436320845654,0.19560108297342801,0.5863406513562706
7.194984844044912,1.1697734097217694,7.741568958429457,0.06107029612023712,-0.006206217576455726,0.019339436320845654,0.19211178801393017,0.5937395055684096
7.256055140165149,1.1635671921453137,7.760908394750302,0.06107029612023712,-0.006206217576455726,0.019339436320845654,0.18970485419633432,0.5856723994599429
7.3171254362853855,1.157360974568858,7.780247831071148,0.06107029612023712,-0.006206217576455726,0.019339436320845654,0.18916464573793293,0.5590811566568066
7.378195732405622,1.1511547569924023,7.799587267391994,0.06107029612023712,-0.006206217576455726,0.019339436320845654,0.1892805745990069,0.5635737968769171
7.439266028525859,1.1449485394159467,7.818926703712839,0.06107029612023712,-0.006206217576455726,0.019339436320845654,0.19073112460346583,0.5579916449922431
7.500336324646096,1.138742321839491,7.838266140033685,0.06107029612023712,-0.006206217576455726,0.019339436320845654,0.19701528941249033,0.5669956697061277
7.561406620766332,1.1325361042630353,7.857605576354531,0.06107029612023712,-0.006206217576455726,0.019339436320845654,0.19485517263406224,0.5634896090023847
7.622476916886569,1.1263298866865796,7.876945012675376,0.06107029612023712,-0.006206217576455726,0.019339436320845654,0.18934828089960756,0.5515868391089904
7.683547213006806,1.120123669110124,7.896284448996222,0.06107029612023712,-0.006206217576455726,0.019339436320845654,0.18916440431459292,0.5343895982209692
7.744617509127043,1.1139174515336683,7.915623885317068,0.06107029612023712,-0.006206217576455726,0.019339436320845654,0.18554476936130118,0.5372434956079933
7.805687805247279,1.1077112339572126,7.934963321637913,0.06107029612023712,-0.006206217576455726,0.019339436320845654,0.1890694827289977,0.5547999732328575
7.866758101367516,1.101505016380757,7.954302757958759,0.06107029612023712,-0.006206217576455726,0.019339436320845654,0.1876426413587523,0.5621673614306348
7.817667775649092,1.0926853938987575,7.981282385363645,-0.04909032571842417,-0.008819622481999452,0.026979627404886346,0.19119563438662332,0.5620969851072568
7.7685774499306675,1.083865771416758,8.008262012768531,-0.04909032571842417,-0.008819622481999452,0.026979627404886346,0.198970364717179,0.5622702099455916
7.719487124212243,1.0750461489347587,8.035241640173417,-0.04909032571842417,-0.008819622481999452,0.026979627404886346,0.19970750220134126,0.5665737200842027
7.670396798493819,1.0662265264527593,8.062221267578304,-0.04909032571842417,-0.008819622481999452,0.026979627404886346,0.19513086846212482,0.548866636670031
7.6213064727753945,1.0574069039707599,8.08920089498319,-0.04909032571842417,-0.008819622481999452,0.026979627404886346,0.19006037029750095,0.5380381312910457
7.57221614705697,1.0485872814887605,8.116180522388076,-0.04909032571842417,-0.008819622481999452,0.026979627404886346,0.18720202599258662,0.5372949533520786
7.523125821338546,1.039767659006761,8.143160149792962,-0.04909032571842417,-0.008819622481999452,0.026979627404886346,0.19183099343096358,0.5413421655213676
7.474035495620122,1.0309480365247616,8.170139777197848,-0.04909032571842417,-0.008819622481999452,0.026979627404886346,0.19273404735458607,0.5262307787701164
7.424945169901697,1.0221284140427622,8.197119404602734,-0.04909032571842417,-0.008819622481999452,0.026979627404886346,0.18953159437389994,0.5221227687627921
7.375854844183273,1.0133087915607628,8.22409903200762,-0.04909032571842417,-0.008819622481999452,0.026979627404886346,0.18785667588943608,0.5231916820018371
7.326764518464849,1.0044891690787634,8.251078659412507,-0.04909032571842417,-0.008819622481999452,0.026979627404886346,0.18683847382675262,0.533308339309534
7.277674192746424,0.995669546596764,8.278058286817393,-0.04909032571842417,-0.008819622481999452,0.026979627404886346,0.18712689013190179,0.5160480962394712
7.228583867028,0.9868499241147646,8.305037914222279,-0.04909032571842417,-0.008819622481999452,0.026979627404886346,0.17787282509667718,0.5213381049385721
7.179493541309576,0.9780303016327652,8.332017541627165,-0.04909032571842417,-0.008819622481999452,0.026979627404886346,0.17759464893597535,0.5017094692941118
7.130403215591151,0.9692106791507658,8.358997169032051,-0.04909032571842417,-0.008819622481999452,0.026979627404886346,0.17103973807476774,0.5060857382666725
7.081312889872727,0.9603910566687663,8.385976796436937,-0.04909032571842417,-0.008819622481999452,0.026979627404886346,0.18041352875296052,0.5045202866377971
7.032222564154303,0.9515714341867669,8.412956423841823,-0.04909032571842417,-0.008819622481999452,0.026979627404886346,0.17409273748556664,0.494525389784557
6.9831322384358785,0.9427518117047675,8.43993605124671,-0.04909032571842417,-0.008819622481999452,0.026979627404886346,0.16380912079741114,0.5012654591572131
6.934041912717454,0.9339321892227681,8.466915678651596,-0.04909032571842417,-0.008819622481999452,0.026979627404886346,0.15248732696340594,0.5076086794417775
6.88495158699903,0.9251125667407687,8.493895306056482,-0.04909032571842417,-0.008819622481999452,0.026979627404886346,0.15577728085431544,0.5012890949434692
6.835861261280606,0.9162929442587693,8.520874933461368,-0.04909032571842417,-0.008819622481999452,0.026979627404886346,0.1562089913202621,0.5049366759225159
6.786770935562181,0.9074733217767699,8.547854560866254,-0.04909032571842417,-0.008819622481999452,0.026979627404886346,0.15438390703682653,0.5029138055506084
6.737680609843757,0.8986536992947705,8.57483418827114,-0.04909032571842417,-0.008819622481999452,0.026979627404886346,0.15694289544607082,0.49910340548851867
6.688590284125333,0.889834076812771,8.601813815676026,-0.04909032571842417,-0.008819622481999452,0.026979627404886346,0.15950621781692362,0.4940242188869608
6.639499958406908,0.8810144543307716,8.628793443080912,-0.04909032571842417,-0.008819622481999452,0.026979627404886346,0.16966406987662236,0.49611736722696664
6.590409632688484,0.8721948318487722,8.655773070485798,-0.04909032571842417,-0.008819622481999452,0.026979627404886346,0.1700640866870992,0.5043085150866784
6.54131930697006,0.8633752093667728,8.682752697890685,-0.04909032571842417,-0.008819622481999452,0.026979627404886346,0.1669847262367022,0.4994469149109629
6.492228981251635,0.8545555868847734,8.70973232529557,-0.04909032571842417,-0.008819622481999452,0.026979627404886346,0.16509046706030986,0.505088896765108
6.443138655533211,0.845735964402774,8.736711952700457,-0.04909032571842417,-0.008819622481999452,0.026979627404886346,0.1664814551493659,0.5001439864552499
6.394048329814787,0.8369163419207746,8.763691580105343,-0.04909032571842417,-0.008819622481999452,0.026979627404886346,0.16311864265660106,0.49854407099262404
6.3449580040963625,0.8280967194387752,8.79067120751023,-0.04909032571842417,-0.008819622481999452,0.026979627404886346,0.16445291966175668,0.5088416024577044
6.295867678377938,0.8192770969567758,8.817650834915115,-0.04909032571842417,-0.008819622481999452,0.026979627404886346,0.17030221382516286,0.5265936058370102
6.246777352659514,0.8104574744747763,8.844630462320001,-0.04909032571842417,-0.008819622481999452,0.026979627404886346,0.16965043545980255,0.5156777006447592
6.1976870269410895,0.8016378519927769,8.871610089724888,-0.04909032571842417,-0.008819622481999452,0.026979627404886346,0.1689767212915312,0.5112805695016546
6.148596701222665,0.7928182295107775,8.898589717129774,-0.04909032571842417,-0.008819622481999452,0.026979627404886346,0.17015241638053943,0.5147264229700832
6.099506375504241,0.7839986070287781,8.92556934453466,-0.04909032571842417,-0.008819622481999452,0.026979627404886346,0.16573631366153363,0.5207880937701894
6.050416049785817,0.7751789845467787,8.952548971939546,-0.04909032571842417,-0.008819622481999452,0.026979627404886346,0.15959365438264822,0.5202076314773595
6.001325724067392,0.7663593620647793,8.979528599344432,-0.04909032571842417,-0.008819622481999452,0.026979627404886346,0.16046240387807745,0.5250235297153084
5.952235398348968,0.7575397395827799,9.006508226749318,-0.04909032571842417,-0.008819622481999452,0.026979627404886346,0.16464201954694616,0.519117399186266
5.903145072630544,0.7487201171007805,9.033487854154204,-0.04909032571842417,-0.008819622481999452,0.026979627404886346,0.16618232760661353,0.5131671820193316
5.854054746912119,0.739900494618781,9.06046748155909,-0.04909032571842417,-0.008819622481999452,0.026979627404886346,0.16445248391414377,0.4942684332919531
5.804964421193695,0.7310808721367816,9.087447108963977,-0.04909032571842417,-0.008819622481999452,0.026979627404886346,0.1650680985102301,0.49561757845698046
5.755874095475271,0.7222612496547822,9.114426736368863,-0.04909032571842417,-0.008819622481999452,0.026979627404886346,0.16177566942108076,0.5023676244479471
5.706783769756846,0.7134416271727828,9.141406363773749,-0.04909032571842417,-0.008819622481999452,0.026979627404886346,0.16474721941152928,0.5139272394808599
5.657693444038422,0.7046220046907834,9.168385991178635,-0.04909032571842417,-0.008819622481999452,0.026979627404886346,0.15417983108631053,0.5069120531339656
5.608603118319998,0.695802382208784,9.195365618583521,-0.04909032571842417,-0.008819622481999452,0.026979627404886346,0.15145066502384869,0.5041064719465672
5.5595127926015735,0.6869827597267846,9.222345245988407,-0.04909032571842417,-0.008819622481999452,0.026979627404886346,0.1411494095014471,0.4987786494296007
5.510422466883149,0.6781631372447852,9.249324873393293,-0.04909032571842417,-0.008819622481999452,0.026979627404886346,0.13509923153387257,0.4872731051051127
5.461332141164725,0.6693435147627858,9.27630450079818,-0.04909032571842417,-0.008819622481999452,0.026979627404886346,0.13213863170357754,0.4629405008351495
5.412241815446301,0.6605238922807863,9.303284128203066,-0.04909032571842417,-0.008819622481999452,0.026979627404886346,0.13220982831962225,0.4496634615664151
5.363151489727876,0.6517042697987869,9.330263755607952,-0.04909032571842417,-0.008819622481999452,0.026979627404886346,0.1298006323788786,0.4382729375399694
5.314061164009452,0.6428846473167875,9.357243383012838,-0.04909032571842417,-0.008819622481999452,0.026979627404886346,0.12937673349697676,0.44596039431674567
5.264970838291028,0.6340650248347881,9.384223010417724,-0.04909032571842417,-0.008819622481999452,0.026979627404886346,0.1255488789130612,0.4459100775641156
5.215880512572603,0.6252454023527887,9.41120263782261,-0.04909032571842417,-0.008819622481999452,0.026979627404886346,0.12309835348924882,0.44714248539761303
5.166790186854179,0.6164257798707893,9.438182265227496,-0.04909032571842417,-0.008819622481999452,0.026979627404886346,0.1159173782795823,0.4318366933289756
5.117699861135755,0.6076061573887899,9.465161892632382,-0.04909032571842417,-0.008819622481999452,0.026979627404886346,0.11470737582899615,0.41532026943939243
5.06860953541733,0.5987865349067905,9.492141520037269,-0.04909032571842417,-0.008819622481999452,0.026979627404886346,0.11094300215776104,0.4112095398210372
5.019519209698906,0.589966912424791,9.519121147442155,-0.04909032571842417,-0.008819622481999452,0.026979627404886346,0.10583646927896039,0.4172224320334437
4.970428883980482,0.5811472899427916,9.54610077484704,-0.04909032571842417,-0.008819622481999452,0.026979627404886346,0.11390712637789445,0.4354809044815853
4.9213385582620575,0.5723276674607922,9.573080402251927,-0.04909032571842417,-0.008819622481999452,0.026979627404886346,0.11050774055159493,0.4426376384785746
4.872248232543633,0.5635080449787928,9.600060029656813,-0.04909032571842417,-0.008819622481999452,0.026979627404886346,0.10666036374705373,0.45603023681439875
4.823157906825209,0.5546884224967934,9.6270396570617,-0.04909032571842417,-0.008819622481999452,0.026979627404886346,0.10970362500764169,0.4413814193145504
4.7740675811067845,0.545868800014794,9.654019284466585,-0.04909032571842417,-0.008819622481999452,0.026979627404886346,0.11581098031884421,0.4606622980291849
4.72497725538836,0.5370491775327946,9.680998911871471,-0.04909032571842417,-0.008819622481999452,0.026979627404886346,0.1067235939703455,0.4717239244540757
4.675886929669936,0.5282295550507952,9.707978539276358,-0.04909032571842417,-0.008819622481999452,0.026979627404886346,0.10579161025026666,0.47504407435780915
4.626796603951512,0.5194099325687958,9.734958166681244,-0.04909032571842417,-0.008819622481999452,0.026979627404886346,0.09900454906554962,0.4881206764799161
4.577706278233087,0.5105903100867963,9.76193779408613,-0.04909032571842417,-0.008819622481999452,0.026979627404886346,0.10703104411361125,0.4798372084470239
4.528615952514663,0.5017706876047969,9.788917421491016,-0.04909032571842417,-0.008819622481999452,0.026979627404886346,0.10564524814260114,0.4756910113586893
4.479525626796239,0.49295106512279746,9.815897048895902,-0.04909032571842417,-0.008819622481999452,0.026979627404886346,0.10570129041686291,0.4819500707387316
4.430435301077814,0.484131442640798,9.842876676300788,-0.04909032571842417,-0.008819622481999452,0.026979627404886346,0.1124338223321758,0.4777845800766423
4.38134497535939,0.4753118201587985,9.869856303705674,-0.04909032571842417,-0.008819622481999452,0.026979627404886346,0.11321353901606328,0.47944376694762264
4.332254649640966,0.46649219767679906,9.89683593111056,-0.04909032571842417,-0.008819622481999452,0.026979627404886346,0.11777926459977894,0.47159367335442015
4.283164323922541,0.4576725751947996,9.923815558515447,-0.04909032571842417,-0.008819622481999452,0.026979627404886346,0.11855741847993258,0.4654346499296461
4.234073998204117,0.4488529527128001,9.950795185920333,-0.04909032571842417,-0.008819622481999452,0.026979627404886346,0.11892836948025104,0.4593372095653251
4.184983672485693,0.44003333023080066,9.977774813325219,-0.04909032571842417,-0.008819622481999452,0.026979627404886346,0.10936636785794768,0.4709130035143638
4.222759626072019,0.43685541821354384,9.962720852225882,0.03777595358632599,-0.0031779120172568173,-0.015053961099336854,0.10345099683496954,0.4756064649243103
4.260535579658345,0.43367750619628703,9.947666891126545,0.03777595358632599,-0.0031779120172568173,-0.015053961099336854,0.1051064101039702,0.4836073111401739
4.2983115332446715,0.4304995941790302,9.932612930027208,0.03777595358632599,-0.0031779120172568173,-0.015053961099336854,0.10122959620269081,0.48103199826539833
4.336087486830998,0.4273216821617734,9.917558968927871,0.03777595358632599,-0.0031779120172568173,-0.015053961099336854,0.10254678499109801,0.477896657495817
4.373863440417324,0.4241437701445166,9.902505007828534,0.03777595358632599,-0.0031779120172568173,-0.015053961099336854,0.1049065960086955,0.49525065412554015
4.41163939400365,0.4209658581272598,9.887451046729197,0.03777595358632599,-0.0031779120172568173,-0.015053961099336854,0.10221328508052331,0.48659961971457055
4.4494153475899765,0.417787946110003,9.87239708562986,0.03777595358632599,-0.0031779120172568173,-0.015053961099336854,0.09794920939358467,0.4880936647659301
4.487191301176303,0.41461003409274616,9.857343124530523,0.03777595358632599,-0.0031779120172568173,-0.015053961099336854,0.09132500703795847,0.4836536957517983
4.524967254762629,0.41143212207548935,9.842289163431186,0.03777595358632599,-0.0031779120172568173,-0.015053961099336854,0.09132500703795847,0.48026715529496505
4.562743208348955,0.40825421005823254,9.827235202331849,0.03777595358632599,-0.0031779120172568173,-0.015053961099336854,0.09132500703795847,0.46756834302130756
4.600519161935281,0.4050762980409757,9.812181241232512,0.03777595358632599,-0.0031779120172568173,-0.015053961099336854,0.09132500703795847,0.4827792049314776
4.638295115521608,0.4018983860237189,9.797127280133175,0.03777595358632599,-0.0031779120172568173,-0.015053961099336854,0.09132500703795847,0.4788340687196866
4.676071069107934,0.3987204740064621,9.782073319033838,0.03777595358632599,-0.0031779120172568173,-0.015053961099336854,0.09132500703795847,0.4680187525453398
4.71384702269426,0.3955425619892053,9.767019357934501,0.03777595358632599,-0.0031779120172568173,-0.015053961099336854,0.09132500703795847,0.47078657374894506
4.751622976280586,0.3923646499719485,9.751965396835164,0.03777595358632599,-0.0031779120172568173,-0.015053961099336854,0.09132500703795847,0.4525139917759595
4.789398929866913,0.38918673795469166,9.736911435735827,0.03777595358632599,-0.0031779120172568173,-0.015053961099336854,0.09132500703795847,0.45543419209403213
4.827174883453239,0.38600882593743485,9.72185747463649,0.03777595358632599,-0.0031779120172568173,-0.015053961099336854,0.09132500703795847,0.46235288692819415
4.864950837039565,0.38283091392017804,9.706803513537153,0.03777595358632599,-0.0031779120172568173,-0.015053961099336854,0.09132500703795847,0.4630880628688151
4.902726790625891,0.3796530019029212,9.691749552437816,0.03777595358632599,-0.0031779120172568173,-0.015053961099336854,0.09092051411049597,0.45475242125796483
4.940502744212218,0.3764750898856644,9.67669559133848,0.03777595358632599,-0.0031779120172568173,-0.015053961099336854,0.08856984186224565,0.4499082464723312
4.978278697798544,0.3732971778684076,9.661641630239142,0.03777595358632599,-0.0031779120172568173,-0.015053961099336854,0.09343940641840716,0.45642483011505125
5.01605465138487,0.3701192658511508,9.646587669139805,0.03777595358632599,-0.0031779120172568173,-0.015053961099336854,0.09069275147827,0.45922363118410126
5.053830604971196,0.366941353833894,9.631533708040468,0.03777595358632599,-0.0031779120172568173,-0.015053961099336854,0.09538610102994764,0.47121859705374936
5.0916065585575225,0.36376344181663717,9.616479746941131,0.03777595358632599,-0.0031779120172568173,-0.015053961099336854,0.10349612283190027,0.46480942004513004
5.129382512143849,0.36058552979938036,9.601425785841794,0.03777595358632599,-0.0031779120172568173,-0.015053961099336854,0.11079788053779684,0.4727635448339028
5.167158465730175,0.35740761778212354,9.586371824742457,0.03777595358632599,-0.0031779120172568173,-0.015053961099336854,0.11121361160331687,0.4694644590322991
5.204934419316501,0.35422970576486673,9.57131786364312,0.03777595358632599,-0.0031779120172568173,-0.015053961099336854,0.10935691031957707,0.4706697645553091
5.2427103729028275,0.3510517937476099,9.556263902543783,0.03777595358632599,-0.0031779120172568173,-0.015053961099336854,0.1090416473412831,0.46265427286759736
5.280486326489154,0.3478738817303531,9.541209941444446,0.03777595358632599,-0.0031779120172568173,-0.015053961099336854,0.10315415854300794,0.4570367501260255
5.31826228007548,0.3446959697130963,9.52615598034511,0.03777595358632599,-0.0031779120172568173,-0.015053961099336854,0.10332529426852592,0.4688460124514057
5.356038233661806,0.3415180576958395,9.511102019245772,0.03777595358632599,-0.0031779120172568173,-0.015053961099336854,0.11030682328925709,0.4738988448550849
5.393814187248132,0.33834014567858267,9.496048058146435,0.03777595358632599,-0.0031779120172568173,-0.015053961099336854,0.11641016089280794,0.4714675838361912
5.431590140834459,0.33516223366132586,9.480994097047098,0.03777595358632599,-0.0031779120172568173,-0.015053961099336854,0.11273333969410995,0.4608524759431334
5.469366094420785,0.33198432164406905,9.465940135947761,0.03777595358632599,-0.0031779120172568173,-0.015053961099336854,0.1175061932644274,0.45174332978786613
5.507142048007111,0.32880640962681223,9.450886174848424,0.03777595358632599,-0.0031779120172568173,-0.015053961099336854,0.127412397832819,0.45033970765047343
5.544918001593437,0.3256284976095554,9.435832213749087,0.03777595358632599,-0.0031779120172568173,-0.015053961099336854,0.13213253410672415,0.4444459506975692
5.582693955179764,0.3224505855922986,9.42077825264975,0.03777595358632599,-0.0031779120172568173,-0.015053961099336854,0.13019675824785093,0.4534894172364749
5.62046990876609,0.3192726735750418,9.405724291550413,0.03777595358632599,-0.0031779120172568173,-0.015053961099336854,0.12370762070117051,0.4462833623043941
5.658245862352416,0.316094761557785,9.390670330451076,0.03777595358632599,-0.0031779120172568173,-0.015053961099336854,0.11857550340977015,0.4416634225683414
5.696021815938742,0.3129168495405282,9.37561636935174,0.03777595358632599,-0.0031779120172568173,-0.015053961099336854,0.11542662312264816,0.4508299441744877
5.733797769525069,0.30973893752327136,9.360562408252402,0.03777595358632599,-0.0031779120172568173,-0.015053961099336854,0.11264233181567414,0.448383758002714
5.771573723111395,0.30656102550601455,9.345508447153065,0.03777595358632599,-0.0031779120172568173,-0.015053961099336854,0.11557287173692475,0.4347520125374955
5.809349676697721,0.30338311348875774,9.330454486053728,0.03777595358632599,-0.0031779120172568173,-0.015053961099336854,0.11297649431279214,0.4281388011235155
5.847125630284047,0.3002052014715009,9.315400524954391,0.03777595358632599,-0.0031779120172568173,-0.015053961099336854,0.11185318487963551,0.4330596370121739
5.8849015838703735,0.2970272894542441,9.300346563855054,0.03777595358632599,-0.0031779120172568173,-0.015053961099336854,0.11053530385507884,0.43736694766611534
5.9226775374567,0.2938493774369873,9.285292602755717,0.03777595358632599,-0.0031779120172568173,-0.015053961099336854,0.11128312430870879,0.44171958248202464
5.960453491043026,0.2906714654197305,9.27023864165638,0.03777595358632599,-0.0031779120172568173,-0.015053961099336854,0.11478555262959067,0.43172667482783983
5.998229444629352,0.2874935534024737,9.255184680557043,0.03777595358632599,-0.0031779120172568173,-0.015053961099336854,0.11966490237227739,0.4215736791852662
6.0360053982156785,0.28431564138521687,9.240130719457706,0.03777595358632599,-0.0031779120172568173,-0.015053961099336854,0.11391572947842263,0.41388689036848175
6.073781351802005,0.28113772936796005,9.22507675835837,0.03777595358632599,-0.0031779120172568173,-0.015053961099336854,0.11525116828913248,0.4149424786124461
6.111557305388331,0.27795981735070324,9.210022797259033,0.03777595358632599,-0.0031779120172568173,-0.015053961099336854,0.11142789265949275,0.40322891989983606
6.149333258974657,0.27478190533344643,9.194968836159696,0.03777595358632599,-0.0031779120172568173,-0.015053961099336854,0.11734851560909,0.4135331709804158
6.1871092125609835,0.2716039933161896,9.179914875060359,0.03777595358632599,-0.0031779120172568173,-0.015053961099336854,0.11803194824302046,0.41971327152586724
6.22488516614731,0.2684260812989328,9.164860913961022,0.03777595358632599,-0.0031779120172568173,-0.015053961099336854,0.12161828876116522,0.44836243216833205
6.262661119733636,0.265248169281676,9.149806952861685,0.03777595358632599,-0.0031779120172568173,-0.015053961099336854,0.1244870936253211,0.4493876459000717
6.300437073319962,0.2620702572644192,9.134752991762348,0.03777595358632599,-0.0031779120172568173,-0.015053961099336854,0.12329903060340468,0.4530247938127594
6.338213026906288,0.25889234524716237,9.11969903066301,0.03777595358632599,-0.0031779120172568173,-0.015053961099336854,0.11999435417511665,0.4611421391240372
6.375988980492615,0.25571443322990556,9.104645069563674,0.03777595358632599,-0.0031779120172568173,-0.015053961099336854,0.12282607777929451,0.4590959907539352
6.413764934078941,0.25253652121264875,9.089591108464337,0.03777595358632599,-0.0031779120172568173,-0.015053961099336854,0.11960885502375666,0.44822550222320856
6.451540887665267,0.24935860919539193,9.074537147365,0.03777595358632599,-0.0031779120172568173,-0.015053961099336854,0.1220649806884406,0.4480535206583949
6.489316841251593,0.24618069717813512,9.059483186265663,0.03777595358632599,-0.0031779120172568173,-0.015053961099336854,0.12615442653704778,0.44979252530934105
6.52709279483792,0.2430027851608783,9.044429225166326,0.03777595358632599,-0.0031779120172568173,-0.015053961099336854,0.12752557978586124,0.4330697598256506
6.564868748424246,0.2398248731436215,9.029375264066989,0.03777595358632599,-0.0031779120172568173,-0.015053961099336854,0.12336761077844002,0.4197166351713621
6.602644702010572,0.23664696112636469,9.014321302967652,0.03777595358632599,-0.0031779120172568173,-0.015053961099336854,0.11995872938014568,0.4301178672701901
6.640420655596898,0.23346904910910787,8.999267341868315,0.03777595358632599,-0.0031779120172568173,-0.015053961099336854,0.12150548529440758,0.4118360867679972
6.6781966091832246,0.23029113709185106,8.984213380768978,0.03777595358632599,-0.0031779120172568173,-0.015053961099336854,0.12274194839402085,0.4213672972603322
6.715972562769551,0.22711322507459425,8.96915941966964,0.03777595358632599,-0.0031779120172568173,-0.015053961099336854,0.12558591287924042,0.4257269692219317
6.753748516355877,0.22393531305733744,8.954105458570304,0.03777595358632599,-0.0031779120172568173,-0.015053961099336854,0.12754659934582177,0.422182348834315
6.791524469942203,0.22075740104008063,8.939051497470967,0.03777595358632599,-0.0031779120172568173,-0.015053961099336854,0.13755780578581084,0.40646669527485796
6.8293004235285295,0.2175794890228238,8.92399753637163,0.03777595358632599,-0.0031779120172568173,-0.015053961099336854,0.14191301376730162,0.42117350181740043
6.867076377114856,0.214401577005567,8.908943575272293,0.03777595358632599,-0.0031779120172568173,-0.015053961099336854,0.1386591543771908,0.4275787511593047
6.904852330701182,0.2112236649883102,8.893889614172956,0.03777595358632599,-0.0031779120172568173,-0.015053961099336854,0.13555320541209517,0.4359527607049072
6.942628284287508,0.20804575297105338,8.878835653073619,0.03777595358632599,-0.0031779120172568173,-0.015053961099336854,0.1385863482241619,0.4431954073517351
6.9804042378738345,0.20486784095379657,8.863781691974282,0.03777595358632599,-0.0031779120172568173,-0.015053961099336854,0.13486509104749989,0.4313620220647105
7.018180191460161,0.20168992893653975,8.848727730874945,0.03777595358632599,-0.0031779120172568173,-0.015053961099336854,0.12885606439154487,0.44351282566089006
7.055956145046487,0.19851201691928294,8.833673769775608,0.03777595358632599,-0.0031779120172568173,-0.015053961099336854,0.12449079724962045,0.44562176121820024
7.093732098632813,0.19533410490202613,8.81861980867627,0.03777595358632599,-0.0031779120172568173,-0.015053961099336854,0.12422634686804082,0.4466098868840467
7.131508052219139,0.19215619288476932,8.803565847576934,0.03777595358632599,-0.0031779120172568173,-0.015053961099336854,0.12170752052865706,0.459253028451582
7.169284005805466,0.1889782808675125,8.788511886477597,0.03777595358632599,-0.0031779120172568173,-0.015053961099336854,0.12684492934585975,0.4573995245325238
7.207059959391792,0.1858003688502557,8.77345792537826,0.03777595358632599,-0.0031779120172568173,-0.015053961099336854,0.13834015338721686,0.4583637250449457
7.244835912978118,0.18262245683299888,8.758403964278923,0.03777595358632599,-0.0031779120172568173,-0.015053961099336854,0.13565455611516627,0.45537278012395754
7.282611866564444,0.17944454481574207,8.743350003179586,0.03777595358632599,-0.0031779120172568173,-0.015053961099336854,0.1374746586067342,0.46401618417735396
7.320387820150771,0.17626663279848526,8.728296042080249,0.03777595358632599,-0.0031779120172568173,-0.015053961099336854,0.13934129168337547,0.4720587444205139
7.358163773737097,0.17308872078122844,8.713242080980912,0.03777595358632599,-0.0031779120172568173,-0.015053961099336854,0.1413588231857991,0.4767111623377181
7.395939727323423,0.16991080876397163,8.698188119881575,0.03777595358632599,-0.0031779120172568173,-0.015053961099336854,0.14194661708374448,0.4715955079999074
7.433715680909749,0.16673289674671482,8.683134158782238,0.03777595358632599,-0.0031779120172568173,-0.015053961099336854,0.15060924620541588,0.4702702236180798
7.471491634496076,0.163554984729458,8.668080197682901,0.03777595358632599,-0.0031779120172568173,-0.015053961099336854,0.1479748962886116,0.4660774656444466
7.509267588082402,0.1603770727122012,8.653026236583564,0.03777595358632599,-0.0031779120172568173,-0.015053961099336854,0.15384244801546554,0.4651963018698594
7.531312888391473,0.15048751763576343,8.59609693253572,0.022045300309071085,-0.009889555076437765,-0.056929304047842674,0.16427387767758836,0.4643097840387851
7.553358188700544,0.14059796255932566,8.539167628487878,0.022045300309071085,-0.009889555076437765,-0.056929304047842674,0.16367025407506555,0.46554115012947866
7.575403489009616,0.1307084074828879,8.482238324440035,0.022045300309071085,-0.009889555076437765,-0.056929304047842674,0.15043265295670358,0.46641499679084125
7.597448789318687,0.12081885240645013,8.425309020392191,0.022045300309071085,-0.009889555076437765,-0.056929304047842674,0.14473175264805851,0.4465299581401692
7.619494089627758,0.11092929733001236,8.368379716344348,0.022045300309071085,-0.009889555076437765,-0.056929304047842674,0.15211353000874012,0.4386986880442868
7.641539389936829,0.1010397422535746,8.311450412296505,0.022045300309071085,-0.009889555076437765,-0.056929304047842674,0.15220591977715694,0.43561155208994334
7.663584690245901,0.09115018717713683,8.254521108248662,0.022045300309071085,-0.009889555076437765,-0.056929304047842674,0.1578794914474402,0.44001337774607274
7.685629990554972,0.08126063210069906,8.197591804200819,0.022045300309071085,-0.009889555076437765,-0.056929304047842674,0.1631507289728147,0.43526646620312565
7.707675290864043,0.07137107702426129,8.140662500152976,0.022045300309071085,-0.009889555076437765,-0.056929304047842674,0.15462356471275232,0.43294427958225673
7.729720591173114,0.061481521947823525,8.083733196105133,0.022045300309071085,-0.009889555076437765,-0.056929304047842674,0.15886507544810305,0.44254819602729795
7.751765891482186,0.05159196687138576,8.02680389205729,0.022045300309071085,-0.009889555076437765,-0.056929304047842674,0.16149438112672415,0.44367164565633993
7.773811191791257,0.04170241179494799,7.969874588009447,0.022045300309071085,-0.009889555076437765,-0.056929304047842674,0.15271886741340668,0.4414201477931745
7.795856492100328,0.031812856718510224,7.912945283961605,0.022045300309071085,-0.009889555076437765,-0.056929304047842674,0.15383424671980533,0.4421339791591145
7.817901792409399,0.021923301642072457,7.856015979913763,0.022045300309071085,-0.009889555076437765,-0.056929304047842674,0.14932953015021114,0.4237609604166676
7.839947092718471,0.012033746565634692,7.7990866758659205,0.022045300309071085,-0.009889555076437765,-0.056929304047842674,0.15974045128301015,0.4219878154958882
7.861992393027542,0.002144191489196926,7.742157371818078,0.022045300309071085,-0.009889555076437765,-0.056929304047842674,0.16139274370078852,0.434455517839593
7.884037693336613,-0.007745363587240839,7.685228067770236,0.022045300309071085,-0.009889555076437765,-0.056929304047842674,0.15765769378402045,0.42644414461457236
7.9060829936456845,-0.017634918663678605,7.628298763722394,0.022045300309071085,-0.009889555076437765,-0.056929304047842674,0.1546410904765137,0.4312531669461606
7.928128293954756,-0.02752447374011637,7.5713694596745515,0.022045300309071085,-0.009889555076437765,-0.056929304047842674,0.14596709619799886,0.44405572513959063
7.950173594263827,-0.03741402881655414,7.514440155626709,0.022045300309071085,-0.009889555076437765,-0.056929304047842674,0.13797657520355416,0.44100091724221135
7.972218894572898,-0.047303583892991906,7.457510851578867,0.022045300309071085,-0.009889555076437765,-0.056929304047842674,0.13911974646648256,0.4301331866563816
7.9942641948819695,-0.05719313896942967,7.400581547531025,0.022045300309071085,-0.009889555076437765,-0.056929304047842674,0.1321996152178003,0.4316121963785796
8.01630949519104,-0.06708269404586743,7.343652243483183,0.022045300309071085,-0.009889555076437765,-0.056929304047842674,0.12430245129067945,0.43517037463672514
8.03835479550011,-0.0769722491223052,7.28672293943534,0.022045300309071085,-0.009889555076437765,-0.056929304047842674,0.1308069209435291,0.42213203825010376
8.06040009580918,-0.08686180419874297,7.229793635387498,0.022045300309071085,-0.009889555076437765,-0.056929304047842674,0.13743515299056172,0.4087006497300028
8.082445396118251,-0.09675135927518073,7.172864331339656,0.022045300309071085,-0.009889555076437765,-0.056929304047842674,0.13346063219965043,0.4178711511889345
8.104490696427321,-0.1066409143516185,7.115935027291814,0.022045300309071085,-0.009889555076437765,-0.056929304047842674,0.12317842714071081,0.4263046352252025
8.126535996736392,-0.11653046942805627,7.059005723243971,0.022045300309071085,-0.009889555076437765,-0.056929304047842674,0.1306895217981448,0.4246217293865635
8.148581297045462,-0.12642002450449402,7.002076419196129,0.022045300309071085,-0.009889555076437765,-0.056929304047842674,0.1306895217981448,0.4082689659693175
8.170626597354532,-0.1363095795809318,6.945147115148287,0.022045300309071085,-0.009889555076437765,-0.056929304047842674,0.1306895217981448,0.41233121235665743
8.192671897663603,-0.14619913465736956,6.888217811100445,0.022045300309071085,-0.009889555076437765,-0.056929304047842674,0.1306895217981448,0.41370170240095966
8.214717197972673,-0.15608868973380732,6.831288507052602,0.022045300309071085,-0.009889555076437765,-0.056929304047842674,0.1306895217981448,0.4178375957567581
8.236762498281744,-0.1659782448102451,6.77435920300476,0.022045300309071085,-0.009889555076437765,-0.056929304047842674,0.1306895217981448,0.3965715610293752
8.258807798590814,-0.17586779988668286,6.717429898956918,0.022045300309071085,-0.009889555076437765,-0.056929304047842674,0.1306895217981448,0.4049374839567821
8.280853098899884,-0.18575735496312062,6.660500594909076,0.022045300309071085,-0.009889555076437765,-0.056929304047842674,0.12130576634772973,0.41578164426041386
8.302898399208955,-0.1956469100395584,6.603571290861233,0.022045300309071085,-0.009889555076437765,-0.056929304047842674,0.1298242757331089,0.40680363883346976
8.324943699518025,-0.20553646511599616,6.546641986813391,0.022045300309071085,-0.009889555076437765,-0.056929304047842674,0.138902052360028,0.39351011990923307
8.346988999827095,-0.21542602019243393,6.489712682765549,0.022045300309071085,-0.009889555076437765,-0.056929304047842674,0.1312938748102035,0.41036373834019163
8.369034300136166,-0.2253155752688717,6.432783378717707,0.022045300309071085,-0.009889555076437765,-0.056929304047842674,0.12553273135782153,0.42057754937914404
8.391079600445236,-0.23520513034530946,6.375854074669864,0.022045300309071085,-0.009889555076437765,-0.056929304047842674,0.13397997542484363,0.4069015748287198
8.413124900754307,-0.24509468542174723,6.318924770622022,0.022045300309071085,-0.009889555076437765,-0.056929304047842674,0.172943645507855,0.4132040541729639
8.435170201063377,-0.25498424049818497,6.26199546657418,0.022045300309071085,-0.009889555076437765,-0.056929304047842674,0.172943645507855,0.404093800345523
8.457215501372447,-0.2648737955746227,6.205066162526338,0.022045300309071085,-0.009889555076437765,-0.056929304047842674,0.172943645507855,0.3960295502659066
8.479260801681518,-0.27476335065106045,6.1481368584784954,0.022045300309071085,-0.009889555076437765,-0.056929304047842674,0.172943645507855,0.40253607136741615
8.501306101990588,-0.2846529057274982,6.091207554430653,0.022045300309071085,-0.009889555076437765,-0.056929304047842674,0.172943645507855,0.4048411515795514
8.523351402299658,-0.2945424608039359,6.034278250382811,0.022045300309071085,-0.009889555076437765,-0.056929304047842674,0.172943645507855,0.4050783446818283
8.545396702608729,-0.30443201588037366,5.977348946334969,0.022045300309071085,-0.009889555076437765,-0.056929304047842674,0.172943645507855,0.39688700251020864
8.5674420029178,-0.3143215709568114,5.9204196422871265,0.022045300309071085,-0.009889555076437765,-0.056929304047842674,0.172943645507855,0.41003541447726316
8.58948730322687,-0.32421112603324914,5.863490338239284,0.022045300309071085,-0.009889555076437765,-0.056929304047842674,0.172943645507855,0.404339444529903
8.61153260353594,-0.3341006811096869,5.806561034191442,0.022045300309071085,-0.009889555076437765,-0.056929304047842674,0.16802223104812544,0.40512153410003715
8.63357790384501,-0.3439902361861246,5.7496317301436,0.022045300309071085,-0.009889555076437765,-0.056929304047842674,0.15817593631953464,0.39908560531801013
8.65562320415408,-0.35387979126256236,5.6927024260957575,0.022045300309071085,-0.009889555076437765,-0.056929304047842674,0.16704032141795747,0.38769146827711337
8.677668504463151,-0.3637693463390001,5.635773122047915,0.022045300309071085,-0.009889555076437765,-0.056929304047842674,0.16904982760882603,0.386452303564942
8.699713804772221,-0.37365890141543784,5.578843818000073,0.022045300309071085,-0.009889555076437765,-0.056929304047842674,0.16620425904609074,0.3948057316833547
8.721759105081292,-0.3835484564918756,5.521914513952231,0.022045300309071085,-0.009889555076437765,-0.056929304047842674,0.17795347981214005,0.3769915819927103
8.743804405390362,-0.3934380115683133,5.4649852099043885,0.022045300309071085,-0.009889555076437765,-0.056929304047842674,0.1945340597091849,0.37632794319265467
8.765849705699432,-0.40332756664475106,5.408055905856546,0.022045300309071085,-0.009889555076437765,-0.056929304047842674,0.1945340597091849,0.3746249794833347
8.787895006008503,-0.4132171217211888,5.351126601808704,0.022045300309071085,-0.009889555076437765,-0.056929304047842674,0.19021906050826207,0.35509284004497
8.809940306317573,-0.42310667679762654,5.294197297760862,0.022045300309071085,-0.009889555076437765,-0.056929304047842674,0.20159039491922917,0.3582678633905667
8.831985606626644,-0.4329962318740643,5.2372679937130195,0.022045300309071085,-0.009889555076437765,-0.056929304047842674,0.19778151004992384,0.3616723807358626
8.854030906935714,-0.442885786950502,5.180338689665177,0.022045300309071085,-0.009889555076437765,-0.056929304047842674,0.2031317461206583,0.36081533077166356
8.876076207244784,-0.45277534202693975,5.123409385617335,0.022045300309071085,-0.009889555076437765,-0.056929304047842674,0.20461172770435013,0.3640925562035494
8.898121507553855,-0.4626648971033775,5.066480081569493,0.022045300309071085,-0.009889555076437765,-0.056929304047842674,0.2047099414394407,0.35959244908952487
8.920166807862925,-0.47255445217981523,5.009550777521651,0.022045300309071085,-0.009889555076437765,-0.056929304047842674,0.21101684818684244,0.35198330976824194
8.942212108171995,-0.48244400725625297,4.952621473473808,0.022045300309071085,-0.009889555076437765,-0.056929304047842674,0.21313951917715993,0.338676755458052
8.964257408481066,-0.4923335623326907,4.895692169425966,0.022045300309071085,-0.009889555076437765,-0.056929304047842674,0.2064851263665466,0.33971082966300237
8.986302708790136,-0.5022231174091285,4.838762865378124,0.022045300309071085,-0.009889555076437765,-0.056929304047842674,0.21361483665163716,0.35143631824009247
9.008348009099207,-0.5121126724855662,4.781833561330282,0.022045300309071085,-0.009889555076437765,-0.056929304047842674,0.21570901266430834,0.3519567248895077
9.030393309408277,-0.522002227562004,4.724904257282439,0.022045300309071085,-0.009889555076437765,-0.056929304047842674,0.22355887481845454,0.336121939151127
9.052438609717347,-0.5318917826384417,4.667974953234597,0.022045300309071085,-0.009889555076437765,-0.056929304047842674,0.21921702086772502,0.3217902208082415
9.074483910026418,-0.5417813377148795,4.611045649186755,0.022045300309071085,-0.009889555076437765,-0.056929304047842674,0.23415311973118583,0.34738836752599433
9.087645800882743,-0.5435712874683213,4.645088773266883,0.013161890856325142,-0.0017899497534418342,0.034043124080127635,0.23110880486660879,0.3600910934305781
9.10080769173907,-0.5453612372217631,4.679131897347011,0.013161890856325142,-0.0017899497534418342,0.034043124080127635,0.24527905518617046,0.37311272450544747
9.113969582595395,-0.5471511869752049,4.713175021427139,0.013161890856325142,-0.0017899497534418342,0.034043124080127635,0.2761690599901481,0.38645721442447756
9.12713147345172,-0.5489411367286468,4.747218145507267,0.013161890856325142,-0.0017899497534418342,0.034043124080127635,0.2761690599901481,0.4001285168615437
9.140293364308047,-0.5507310864820886,4.781261269587395,0.013161890856325142,-0.0017899497534418342,0.034043124080127635,0.2761690599901481,0.4141305854905211
9.153455255164372,-0.5525210362355304,4.815304393667523,0.013161890856325142,-0.0017899497534418342,0.034043124080127635,0.2761690599901481,0.4284673739852851
9.166617146020698,-0.5543109859889722,4.849347517747651,0.013161890856325142,-0.0017899497534418342,0.034043124080127635,0.2761690599901481,0.44314283601971083
9.179779036877024,-0.556100935742414,4.883390641827779,0.013161890856325142,-0.0017899497534418342,0.034043124080127635,0.2761690599901481,0.4581609252676736
9.19294092773335,-0.5578908854958559,4.917433765907907,0.013161890856325142,-0.0017899497534418342,0.034043124080127635,0.2761690599901481,0.4735255954030486
9.206102818589676,-0.5596808352492977,4.951476889988035,0.013161890856325142,-0.0017899497534418342,0.034043124080127635,0.2761690599901481,0.4892408000997111
9.219264709446001,-0.5614707850027395,4.985520014068163,0.013161890856325142,-0.0017899497534418342,0.034043124080127635,0.2761690599901481,0.5053104930315365
9.232426600302327,-0.5632607347561813,5.019563138148291,0.013161890856325142,-0.0017899497534418342,0.034043124080127635,0.2761690599901481,0.5217386278723998
9.245588491158653,-0.5650506845096231,5.053606262228419,0.013161890856325142,-0.0017899497534418342,0.034043124080127635,0.2761690599901481,0.5385291582961763
9.258750382014979,-0.566840634263065,5.087649386308547,0.013161890856325142,-0.0017899497534418342,0.034043124080127635,0.28158731313032004,0.5556860379767414
9.271912272871305,-0.5686305840165068,5.121692510388675,0.013161890856325142,-0.0017899497534418342,0.034043124080127635,0.28180578728021016,0.5732132205879703
9.28507416372763,-0.5704205337699486,5.155735634468803,0.013161890856325142,-0.0017899497534418342,0.034043124080127635,0.2745678204076004,0.5732132205879703
9.298236054583956,-0.5722104835233904,5.189778758548931,0.013161890856325142,-0.0017899497534418342,0.034043124080127635,0.27815307149392654,0.5732132205879703
9.311397945440282,-0.5740004332768323,5.223821882629059,0.013161890856325142,-0.0017899497534418342,0.034043124080127635,0.27953928986751814,0.5732132205879703
9.324559836296608,-0.5757903830302741,5.257865006709187,0.013161890856325142,-0.0017899497534418342,0.034043124080127635,0.2845689563143611,0.5732132205879703
9.337721727152934,-0.5775803327837159,5.291908130789315,0.013161890856325142,-0.0017899497534418342,0.034043124080127635,0.2731719735120905,0.5732132205879703
9.35088361800926,-0.5793702825371577,5.325951254869443,0.013161890856325142,-0.0017899497534418342,0.034043124080127635,0.27804008852474404,0.5732132205879703
9.364045508865585,-0.5811602322905995,5.359994378949571,0.013161890856325142,-0.0017899497534418342,0.034043124080127635,0.276231609700889,0.5732132205879703
9.377207399721911,-0.5829501820440414,5.394037503029699,0.013161890856325142,-0.0017899497534418342,0.034043124080127635,0.2810906498933597,0.5732132205879703
9.390369290578237,-0.5847401317974832,5.428080627109827,0.013161890856325142,-0.0017899497534418342,0.034043124080127635,0.2837200303649896,0.5732132205879703
9.403531181434563,-0.586530081550925,5.462123751189955,0.013161890856325142,-0.0017899497534418342,0.034043124080127635,0.28905690886917207,0.5732132205879703
9.416693072290888,-0.5883200313043668,5.496166875270083,0.013161890856325142,-0.0017899497534418342,0.034043124080127635,0.28724751501869356,0.5696973383666531
9.429854963147214,-0.5901099810578087,5.530209999350211,0.013161890856325142,-0.0017899497534418342,0.034043124080127635,0.2883514170196193,0.5573161926524934
9.405523282437224,-0.6049902285286674,5.463099772720519,-0.02433168070998921,-0.014880247470858652,-0.06711022662969143,0.2921771541477514,0.5461262804141616
9.381191601727235,-0.619870475999526,5.395989546090828,-0.02433168070998921,-0.014880247470858652,-0.06711022662969143,0.2937685504027983,0.5508684630322694
9.356859921017245,-0.6347507234703847,5.328879319461136,-0.02433168070998921,-0.014880247470858652,-0.06711022662969143,0.29895859169843214,0.5669410581383789
9.332528240307255,-0.6496309709412434,5.261769092831445,-0.02433168070998921,-0.014880247470858652,-0.06711022662969143,0.2923085255135255,0.5589893201877906
9.308196559597265,-0.6645112184121021,5.194658866201753,-0.02433168070998921,-0.014880247470858652,-0.06711022662969143,0.291387639977856,0.5452275046610634
9.283864878887275,-0.6793914658829608,5.127548639572062,-0.02433168070998921,-0.014880247470858652,-0.06711022662969143,0.2919410938576392,0.5470891941310346
9.259533198177285,-0.6942717133538195,5.0604384129423705,-0.02433168070998921,-0.014880247470858652,-0.06711022662969143,0.29345671098203024,0.5487101283006909
9.235201517467296,-0.7091519608246782,4.993328186312679,-0.02433168070998921,-0.014880247470858652,-0.06711022662969143,0.292375215370512,0.5371597546491266
9.210869836757306,-0.7240322082955369,4.926217959682988,-0.02433168070998921,-0.014880247470858652,-0.06711022662969143,0.2919023872161511,0.5288688328408504
9.186538156047316,-0.7389124557663956,4.859107733053296,-0.02433168070998921,-0.014880247470858652,-0.06711022662969143,0.2848398657936899,0.5401479335826513
9.162206475337326,-0.7537927032372543,4.791997506423605,-0.02433168070998921,-0.014880247470858652,-0.06711022662969143,0.28153706406913026,0.5360908654305792
9.137874794627336,-0.768672950708113,4.724887279793913,-0.02433168070998921,-0.014880247470858652,-0.06711022662969143,0.2829274226762313,0.5306156547341888
9.113543113917347,-0.7835531981789717,4.657777053164222,-0.02433168070998921,-0.014880247470858652,-0.06711022662969143,0.28746250694315595,0.5338096788930659
9.089211433207357,-0.7984334456498304,4.59066682653453,-0.02433168070998921,-0.014880247470858652,-0.06711022662969143,0.28992371425403984,0.5125047069742267
9.064879752497367,-0.8133136931206891,4.523556599904839,-0.02433168070998921,-0.014880247470858652,-0.06711022662969143,0.2813961932864966,0.5308989682717562
9.040548071787377,-0.8281939405915478,4.456446373275147,-0.02433168070998921,-0.014880247470858652,-0.06711022662969143,0.2756128681683345,0.5324145527305191
9.016216391077387,-0.8430741880624065,4.389336146645456,-0.02433168070998921,-0.014880247470858652,-0.06711022662969143,0.2766801064964612,0.539339573740707
8.991884710367398,-0.8579544355332652,4.3222259200157644,-0.02433168070998921,-0.014880247470858652,-0.06711022662969143,0.2698734868443825,0.537128528039139
8.967553029657408,-0.8728346830041239,4.255115693386073,-0.02433168070998921,-0.014880247470858652,-0.06711022662969143,0.2702191182136508,0.5222107206091876
8.943221348947418,-0.8877149304749826,4.1880054667563815,-0.02433168070998921,-0.014880247470858652,-0.06711022662969143,0.2670015915217626,0.5394324749860396
8.918889668237428,-0.9025951779458413,4.12089524012669,-0.02433168070998921,-0.014880247470858652,-0.06711022662969143,0.2610625551068733,0.5185999450306301
8.894557987527438,-0.9174754254167,4.053785013496999,-0.02433168070998921,-0.014880247470858652,-0.06711022662969143,0.26679347083293625,0.5076095576511591
8.870226306817449,-0.9323556728875587,3.986674786867307,-0.02433168070998921,-0.014880247470858652,-0.06711022662969143,0.2815300617684004,0.4973602789311443
8.845894626107459,-0.9472359203584174,3.9195645602376157,-0.02433168070998921,-0.014880247470858652,-0.06711022662969143,0.27908704829731507,0.4871242483977113
8.821562945397469,-0.9621161678292761,3.852454333607924,-0.02433168070998921,-0.014880247470858652,-0.06711022662969143,0.30870392802510216,0.49952670101667596
8.797231264687479,-0.9769964153001348,3.7853441069782328,-0.02433168070998921,-0.014880247470858652,-0.06711022662969143,0.30870392802510216,0.5187791493353207
8.77289958397749,-0.9918766627709935,3.7182338803485413,-0.02433168070998921,-0.014880247470858652,-0.06711022662969143,0.30870392802510216,0.5385342200236605
8.7485679032675,-1.006756910241852,3.65112365371885,-0.02433168070998921,-0.014880247470858652,-0.06711022662969143,0.3054728125310638,0.5587983898645272
8.72423622255751,-1.0216371577127108,3.5840134270891584,-0.02433168070998921,-0.014880247470858652,-0.06711022662969143,0.30992448423850777,0.5795781356407533
8.69990454184752,-1.0365174051835695,3.516903200459467,-0.02433168070998921,-0.014880247470858652,-0.06711022662969143,0.31115318081844223,0.6008799341351704
8.67557286113753,-1.0513976526544282,3.4497929738297755,-0.02433168070998921,-0.014880247470858652,-0.06711022662969143,0.3084634117210996,0.6227102621306106
8.65124118042754,-1.066277900125287,3.382682747200084,-0.02433168070998921,-0.014880247470858652,-0.06711022662969143,0.3154221428434867,0.6450755964099061
8.62690949971755,-1.0811581475961456,3.3155725205703925,-0.02433168070998921,-0.014880247470858652,-0.06711022662969143,0.3253797363030003,0.6679824137558885
8.60257781900756,-1.0960383950670043,3.248462293940701,-0.02433168070998921,-0.014880247470858652,-0.06711022662969143,0.35477867591903506,0.69143719095139
8.57824613829757,-1.110918642537863,3.1813520673110096,-0.02433168070998921,-0.014880247470858652,-0.06711022662969143,0.3622268697734331,0.7154464047792427
8.553914457587581,-1.1257988900087217,3.114241840681318,-0.02433168070998921,-0.014880247470858652,-0.06711022662969143,0.3622268697734331,0.7400165320222785
8.529582776877591,-1.1406791374795804,3.0471316140516267,-0.02433168070998921,-0.014880247470858652,-0.06711022662969143,0.37947663462038006,0.7651540494633293
8.505251096167601,-1.155559384950439,2.9800213874219352,-0.02433168070998921,-0.014880247470858652,-0.06711022662969143,0.37947663462038006,0.7908654338852272
8.480919415457612,-1.1704396324212978,2.9129111607922438,-0.02433168070998921,-0.014880247470858652,-0.06711022662969143,0.37947663462038006,0.8171571620708044
8.456587734747622,-1.1853198798921565,2.8458009341625523,-0.02433168070998921,-0.014880247470858652,-0.06711022662969143,0.37947663462038006,0.8440357108028924
8.432256054037632,-1.2002001273630152,2.778690707532861,-0.02433168070998921,-0.014880247470858652,-0.06711022662969143,0.38011948572793564,0.8715075568643236
8.407924373327642,-1.2150803748338739,2.7115804809031694,-0.02433168070998921,-0.014880247470858652,-0.06711022662969143,0.3890466243566804,0.8995791770379299
8.383592692617652,-1.2299606223047326,2.644470254273478,-0.02433168070998921,-0.014880247470858652,-0.06711022662969143,0.38570862444759507,0.9282570481065432
8.359261011907662,-1.2448408697755913,2.5773600276437865,-0.02433168070998921,-0.014880247470858652,-0.06711022662969143,0.404545119170863,0.9575476468529956
8.334929331197673,-1.25972111724645,2.510249801014095,-0.02433168070998921,-0.014880247470858652,-0.06711022662969143,0.404545119170863,0.9874574500601193
8.310597650487683,-1.2746013647173087,2.4431395743844035,-0.02433168070998921,-0.014880247470858652,-0.06711022662969143,0.398936224965765,1.0179929345107457
8.286265969777693,-1.2894816121881674,2.376029347754712,-0.02433168070998921,-0.014880247470858652,-0.06711022662969143,0.4180063175203007,1.0491605769877075
8.261934289067703,-1.304361859659026,2.3089191211250206,-0.02433168070998921,-0.014880247470858652,-0.06711022662969143,0.43483306457383186,1.080966854273836
8.237602608357713,-1.3192421071298848,2.241808894495329,-0.02433168070998921,-0.014880247470858652,-0.06711022662969143,0.43483306457383186,1.1134182431519637
8.213270927647724,-1.3341223546007435,2.1746986678656377,-0.02433168070998921,-0.014880247470858652,-0.06711022662969143,0.4480744516184241,1.1465212204049227
8.188939246937734,-1.3490026020716022,2.1075884412359462,-0.02433168070998921,-0.014880247470858652,-0.06711022662969143,0.4480744516184241,1.1802822628155443
8.164607566227744,-1.3638828495424609,2.040478214606255,-0.02433168070998921,-0.014880247470858652,-0.06711022662969143,0.4480744516184241,1.2147078471666612
8.140275885517754,-1.3787630970133196,1.9733679879765633,-0.02433168070998921,-0.014880247470858652,-0.06711022662969143,0.4645019048739146,1.2498044502411052
8.115944204807764,-1.3936433444841783,1.9062577613468719,-0.02433168070998921,-0.014880247470858652,-0.06711022662969143,0.4680700822833679,1.2855785488217082
8.091612524097775,-1.408523591955037,1.8391475347171804,-0.02433168070998921,-0.014880247470858652,-0.06711022662969143,0.4752238884506641,1.3220366196913023
8.067280843387785,-1.4234038394258957,1.772037308087489,-0.02433168070998921,-0.014880247470858652,-0.06711022662969143,0.47827089607439766,1.3591851396327195
8.042949162677795,-1.4382840868967544,1.7049270814577975,-0.02433168070998921,-0.014880247470858652,-0.06711022662969143,0.4985526565608663,1.3970305854287914
8.018617481967805,-1.453164334367613,1.637816854828106,-0.02433168070998921,-0.014880247470858652,-0.06711022662969143,0.5023173732529315,1.4355794338623504
7.994285801257816,-1.4680445818384718,1.5707066281984146,-0.02433168070998921,-0.014880247470858652,-0.06711022662969143,0.5023173732529315,1.4748381617162287
7.969954120547827,-1.4829248293093305,1.503596401568723,-0.02433168070998921,-0.014880247470858652,-0.06711022662969143,0.5023173732529315,1.514813245773258
7.945622439837838,-1.4978050767801891,1.4364861749390316,-0.02433168070998921,-0.014880247470858652,-0.06711022662969143,0.5097530965110032,1.5555111628162699
7.921290759127849,-1.5126853242510478,1.3693759483093402,-0.02433168070998921,-0.014880247470858652,-0.06711022662969143,0.517663672865861,1.596938389628097
7.8969590784178605,-1.5275655717219065,1.3022657216796487,-0.02433168070998921,-0.014880247470858652,-0.06711022662969143,0.5261918469053287,1.6391014029915716
7.872627397707872,-1.5424458191927652,1.2351554950499573,-0.02433168070998921,-0.014880247470858652,-0.06711022662969143,0.5347388104585449,1.6820066796895248
7.848295716997883,-1.557326066663624,1.1680452684202658,-0.02433168070998921,-0.014880247470858652,-0.06711022662969143,0.5650723037850924,1.725660696504789
7.823964036287894,-1.5722063141344826,1.1009350417905743,-0.02433168070998921,-0.014880247470858652,-0.06711022662969143,0.5650723037850924,1.770069930220196
7.799632355577905,-1.5870865616053413,1.0338248151608829,-0.02433168070998921,-0.014880247470858652,-0.06711022662969143,0.5650723037850924,1.8152408576185783
7.83183486356644,-1.5854998508788478,1.0165202581520407,0.03220250798853522,0.0015867107264934596,-0.017304557008842127,0.5677198189700983,1.8611799554827684
7.867636098842725,-1.5949200346703656,1.0547166863462307,0.035801235276284954,-0.009420183791517862,0.03819642819419009,0.5727490173703896,1.9078937005955956
7.90343733411901,-1.6043402184618833,1.0929131145404207,0.035801235276284954,-0.009420183791517862,0.03819642819419009,0.5938356062049812,1.9553885697398945
7.939238569395295,-1.6137604022534011,1.1311095427346107,0.035801235276284954,-0.009420183791517862,0.03819642819419009,0.5938356062049812,2.003671039698497
7.97503980467158,-1.6231805860449189,1.1693059709288007,0.035801235276284954,-0.009420183791517862,0.03819642819419009,0.5864799039972218,2.052747587254235
8.010841039947865,-1.6326007698364366,1.2075023991229907,0.035801235276284954,-0.009420183791517862,0.03819642819419009,0.5841262606333927,2.1026246891899385
8.04664227522415,-1.6420209536279544,1.2456988273171807,0.035801235276284954,-0.009420183791517862,0.03819642819419009,0.5886968886758186,2.153308822288441
8.082443510500434,-1.6514411374194722,1.2838952555113707,0.035801235276284954,-0.009420183791517862,0.03819642819419009,0.5960925490804087,2.204806463332576
8.11824474577672,-1.66086132121099,1.3220916837055607,0.035801235276284954,-0.009420183791517862,0.03819642819419009,0.5926582768843679,2.2571240891051736
8.154045981053004,-1.6702815050025077,1.3602881118997507,0.035801235276284954,-0.009420183791517862,0.03819642819419009,0.5904494665892891,2.3102681763890653
8.189847216329289,-1.6797016887940255,1.3984845400939407,0.035801235276284954,-0.009420183791517862,0.03819642819419009,0.5904494665892891,2.3642452019670834
8.225648451605574,-1.6891218725855432,1.4366809682881307,0.035801235276284954,-0.009420183791517862,0.03819642819419009,0.5904494665892891,2.419061642622062
8.261449686881859,-1.698542056377061,1.4748773964823207,0.035801235276284954,-0.009420183791517862,0.03819642819419009,0.5904494665892891,2.4747239751368317
8.297250922158144,-1.7079622401685788,1.5130738246765107,0.035801235276284954,-0.009420183791517862,0.03819642819419009,0.5904494665892891,2.531238676294223
8.333052157434429,-1.7173824239600965,1.5512702528707007,0.035801235276284954,-0.009420183791517862,0.03819642819419009,0.5904494665892891,2.588612222877069
8.368853392710713,-1.7268026077516143,1.5894666810648908,0.035801235276284954,-0.009420183791517862,0.03819642819419009,0.5904494665892891,2.6035462198980617
8.404654627986998,-1.736222791543132,1.6276631092590808,0.035801235276284954,-0.009420183791517862,0.03819642819419009,0.5904494665892891,2.6035462198980617
8.440455863263283,-1.7456429753346498,1.6658595374532708,0.035801235276284954,-0.009420183791517862,0.03819642819419009,0.5904494665892891,2.6035462198980617
8.476257098539568,-1.7550631591261676,1.7040559656474608,0.035801235276284954,-0.009420183791517862,0.03819642819419009,0.5904494665892891,2.6035462198980617
8.512058333815853,-1.7644833429176854,1.7422523938416508,0.035801235276284954,-0.009420183791517862,0.03819642819419009,0.5904494665892891,2.6035462198980617
8.547859569092138,-1.7739035267092031,1.7804488220358408,0.035801235276284954,-0.009420183791517862,0.03819642819419009,0.5923007497867229,2.6035462198980617
8.583660804368423,-1.783323710500721,1.8186452502300308,0.035801235276284954,-0.009420183791517862,0.03819642819419009,0.5883348692734783,2.6035462198980617
8.619462039644707,-1.7927438942922387,1.8568416784242208,0.035801235276284954,-0.009420183791517862,0.03819642819419009,0.5792661724339833,2.6035462198980617
8.655263274920992,-1.8021640780837564,1.8950381066184108,0.035801235276284954,-0.009420183791517862,0.03819642819419009,0.575787085864005,2.6035462198980617
8.691064510197277,-1.8115842618752742,1.9332345348126008,0.035801235276284954,-0.009420183791517862,0.03819642819419009,0.580142754049553,2.6035462198980617
8.726865745473562,-1.821004445666792,1.9714309630067908,0.035801235276284954,-0.009420183791517862,0.03819642819419009,0.5834832110981131,2.6035462198980617
8.762666980749847,-1.8304246294583097,2.009627391200981,0.035801235276284954,-0.009420183791517862,0.03819642819419009,0.5785198879954537,2.5889604586517443
8.798468216026132,-1.8398448132498275,2.047823819395171,0.035801235276284954,-0.009420183791517862,0.03819642819419009,0.5831371144186366,2.593174990023344
8.834269451302417,-1.8492649970413453,2.086020247589361,0.035801235276284954,-0.009420183791517862,0.03819642819419009,0.5818334643669489,2.5962257501873856
8.870070686578702,-1.858685180832863,2.124216675783551,0.035801235276284954,-0.009420183791517862,0.03819642819419009,0.5822267044009349,2.6031634958172702
8.905871921854986,-1.8681053646243808,2.162413103977741,0.035801235276284954,-0.009420183791517862,0.03819642819419009,0.5772785490240976,2.603488064775341
8.941673157131271,-1.8775255484158986,2.200609532171931,0.035801235276284954,-0.009420183791517862,0.03819642819419009,0.5802737810352824,2.6123888366853882
8.910814067805898,-1.8772971220827042,2.2330496412193703,-0.030859089325374067,0.0002284263331944781,0.03244010904743921,0.5818562374404727,2.621217654113147
8.879954978480525,-1.8770686957495097,2.2654897502668097,-0.030859089325374067,0.0002284263331944781,0.03244010904743921,0.5842199521383485,2.6232543523985954
8.849095889155151,-1.8768402694163153,2.297929859314249,-0.030859089325374067,0.0002284263331944781,0.03244010904743921,0.5790509105759852,2.622419885637631
8.818236799829778,-1.876611843083121,2.3303699683616883,-0.030859089325374067,0.0002284263331944781,0.03244010904743921,0.5814975465426144,2.6408882337319333
8.787377710504405,-1.8763834167499265,2.3628100774091276,-0.030859089325374067,0.0002284263331944781,0.03244010904743921,0.5720212689402858,2.646105661997645
8.756518621179032,-1.876154990416732,2.395250186456567,-0.030859089325374067,0.0002284263331944781,0.03244010904743921,0.5665556388839885,2.6493721927399125
8.725659531853658,-1.8759265640835376,2.4276902955040063,-0.030859089325374067,0.0002284263331944781,0.03244010904743921,0.5649671314549074,2.639453705511398
8.694800442528285,-1.8756981377503432,2.4601304045514456,-0.030859089325374067,0.0002284263331944781,0.03244010904743921,0.5608665574872833,2.632525340635172
8.663941353202912,-1.8754697114171488,2.492570513598885,-0.030859089325374067,0.0002284263331944781,0.03244010904743921,0.5585171202529348,2.6305216104960447
8.633082263877538,-1.8752412850839544,2.5250106226463243,-0.030859089325374067,0.0002284263331944781,0.03244010904743921,0.5517282955470368,2.624885387830723
8.602223174552165,-1.87501285875076,2.5574507316937636,-0.030859089325374067,0.0002284263331944781,0.03244010904743921,0.5547006430641825,2.6376497302007427
8.571364085226792,-1.8747844324175655,2.589890840741203,-0.030859089325374067,0.0002284263331944781,0.03244010904743921,0.549512119063398,2.650862684645537
8.540504995901419,-1.8745560060843711,2.6223309497886422,-0.030859089325374067,0.0002284263331944781,0.03244010904743921,0.549955411990802,2.644722548790583
8.509645906576045,-1.8743275797511767,2.6547710588360816,-0.030859089325374067,0.0002284263331944781,0.03244010904743921,0.5419979876517543,2.6458843660799674
8.478786817250672,-1.8740991534179823,2.687211167883521,-0.030859089325374067,0.0002284263331944781,0.03244010904743921,0.5437869989059378,2.63678700008009
8.447927727925299,-1.8738707270847879,2.71965127693096,-0.030859089325374067,0.0002284263331944781,0.03244010904743921,0.5412905885194446,2.6426875825797698
8.417068638599925,-1.8736423007515934,2.7520913859783995,-0.030859089325374067,0.0002284263331944781,0.03244010904743921,0.5330645964126405,2.651564331484203
8.386209549274552,-1.873413874418399,2.784531495025839,-0.030859089325374067,0.0002284263331944781,0.03244010904743921,0.5301361751685095,2.6688337762660073
8.355350459949179,-1.8731854480852046,2.816971604073278,-0.030859089325374067,0.0002284263331944781,0.03244010904743921,0.5263782686089763,2.669566154463253
8.324491370623806,-1.8729570217520102,2.8494117131207175,-0.030859089325374067,0.0002284263331944781,0.03244010904743921,0.5235714461236117,2.664577512459184
8.293632281298432,-1.8727285954188158,2.881851822168157,-0.030859089325374067,0.0002284263331944781,0.03244010904743921,0.5211056181696108,2.6522893562968375
8.262773191973059,-1.8725001690856213,2.914291931215596,-0.030859089325374067,0.0002284263331944781,0.03244010904743921,0.5175066437197614,2.6253684809908835
8.231914102647686,-1.872271742752427,2.9467320402630355,-0.030859089325374067,0.0002284263331944781,0.03244010904743921,0.5152272750427832,2.617452492027829
8.201055013322312,-1.8720433164192325,2.979172149310475,-0.030859089325374067,0.0002284263331944781,0.03244010904743921,0.5149669365845533,2.590392836930393
8.170195923996939,-1.871814890086038,3.011612258357914,-0.030859089325374067,0.0002284263331944781,0.03244010904743921,0.5182503414175721,2.5833022512081945
8.139336834671566,-1.8715864637528437,3.0440523674053535,-0.030859089325374067,0.0002284263331944781,0.03244010904743921,0.513803422330435,2.5928375705570104
8.108477745346192,-1.8713580374196492,3.076492476452793,-0.030859089325374067,0.0002284263331944781,0.03244010904743921,0.5209420061863596,2.603145253522118
8.07761865602082,-1.8711296110864548,3.108932585500232,-0.030859089325374067,0.0002284263331944781,0.03244010904743921,0.5223896997650197,2.5946477275271556
8.046759566695446,-1.8709011847532604,3.1413726945476714,-0.030859089325374067,0.0002284263331944781,0.03244010904743921,0.521353437402971,2.57527299393333
8.015900477370073,-1.870672758420066,3.1738128035951108,-0.030859089325374067,0.0002284263331944781,0.03244010904743921,0.529672485142859,2.5769212852249086
7.985041388044698,-1.8704443320868716,3.20625291264255,-0.030859089325374067,0.0002284263331944781,0.03244010904743921,0.5301003566261677,2.5905103082769747
7.954182298719324,-1.8702159057536771,3.2386930216899894,-0.030859089325374067,0.0002284263331944781,0.03244010904743921,0.5262076632862083,2.587529700340236
7.92332320939395,-1.8699874794204827,3.2711331307374287,-0.030859089325374067,0.0002284263331944781,0.03244010904743921,0.5280434522775691,2.5839615127067623
7.892464120068576,-1.8697590530872883,3.303573239784868,-0.030859089325374067,0.0002284263331944781,0.03244010904743921,0.5264180276522941,2.575865659204569
7.861605030743202,-1.8695306267540939,3.3360133488323074,-0.030859089325374067,0.0002284263331944781,0.03244010904743921,0.5280157838187711,2.573525821083528
7.8307459414178275,-1.8693022004208995,3.3684534578797467,-0.030859089325374067,0.0002284263331944781,0.03244010904743921,0.5334836347135831,2.5548461624795764
7.799886852092453,-1.869073774087705,3.400893566927186,-0.030859089325374067,0.0002284263331944781,0.03244010904743921,0.5243776947468677,2.558149382368808
7.769027762767079,-1.8688453477545106,3.4333336759746254,-0.030859089325374067,0.0002284263331944781,0.03244010904743921,0.5209622987069458,2.5583366156385745
7.738168673441705,-1.8686169214213162,3.4657737850220647,-0.030859089325374067,0.0002284263331944781,0.03244010904743921,0.5154365188609641,2.5660042385621833
7.707309584116331,-1.8683884950881218,3.498213894069504,-0.030859089325374067,0.0002284263331944781,0.03244010904743921,0.5135786798245435,2.576938451233852
7.676450494790957,-1.8681600687549273,3.5306540031169433,-0.030859089325374067,0.0002284263331944781,0.03244010904743921,0.5143333246053343,2.581570848506157
7.6455914054655825,-1.867931642421733,3.5630941121643827,-0.030859089325374067,0.0002284263331944781,0.03244010904743921,0.5037478817635447,2.5838273100143683
7.614732316140208,-1.8677032160885385,3.595534221211822,-0.030859089325374067,0.0002284263331944781,0.03244010904743921,0.5125689428716765,2.58919074640666
7.583873226814834,-1.867474789755344,3.6279743302592613,-0.030859089325374067,0.0002284263331944781,0.03244010904743921,0.5092446459706502,2.5797786770170426
7.55301413748946,-1.8672463634221497,3.6604144393067006,-0.030859089325374067,0.0002284263331944781,0.03244010904743921,0.5083408518004883,2.588235263626017
7.522155048164086,-1.8670179370889552,3.69285454835414,-0.030859089325374067,0.0002284263331944781,0.03244010904743921,0.5024077851972928,2.5795066783425016
7.491295958838712,-1.8667895107557608,3.7252946574015793,-0.030859089325374067,0.0002284263331944781,0.03244010904743921,0.503994716084358,2.582400014405526
7.460436869513337,-1.8665610844225664,3.7577347664490186,-0.030859089325374067,0.0002284263331944781,0.03244010904743921,0.5104855303806699,2.5722125193104004
7.429577780187963,-1.866332658089372,3.790174875496458,-0.030859089325374067,0.0002284263331944781,0.03244010904743921,0.5082242541961829,2.559891188811655
7.398718690862589,-1.8661042317561776,3.8226149845438973,-0.030859089325374067,0.0002284263331944781,0.03244010904743921,0.5086379325129595,2.560180493308749
7.367859601537215,-1.8658758054229831,3.8550550935913366,-0.030859089325374067,0.0002284263331944781,0.03244010904743921,0.5033723862952924,2.5440702959751
7.337000512211841,-1.8656473790897887,3.887495202638776,-0.030859089325374067,0.0002284263331944781,0.03244010904743921,0.5108365402945558,2.5407008015728807
7.3061414228864665,-1.8654189527565943,3.9199353116862152,-0.030859089325374067,0.0002284263331944781,0.03244010904743921,0.5145856437386868,2.548053244546215
7.275282333561092,-1.8651905264233999,3.9523754207336546,-0.030859089325374067,0.0002284263331944781,0.03244010904743921,0.514815738012473,2.539569890143424
7.244423244235718,-1.8649621000902055,3.984815529781094,-0.030859089325374067,0.0002284263331944781,0.03244010904743921,0.510457356787138,2.5426587100540634
7.213564154910344,-1.864733673757011,4.017255638828533,-0.030859089325374067,0.0002284263331944781,0.03244010904743921,0.5123246649403105,2.529456987644196
7.18270506558497,-1.8645052474238166,4.049695747875972,-0.030859089325374067,0.0002284263331944781,0.03244010904743921,0.5010155171049385,2.5158022826420137
7.151845976259596,-1.8642768210906222,4.0821358569234105,-0.030859089325374067,0.0002284263331944781,0.03244010904743921,0.5017577177561635,2.4981263292561016
7.120986886934221,-1.8640483947574278,4.114575965970849,-0.030859089325374067,0.0002284263331944781,0.03244010904743921,0.498186566656089,2.4862600708839326
7.124199967012396,-1.8686525670152323,4.17643854194986,0.0032130800781751375,-0.004604172257804627,0.06186257597901035,0.5005497968111721,2.4876443008756604
7.127413047090571,-1.8732567392730368,4.23830111792887,0.0032130800781751375,-0.004604172257804627,0.06186257597901035,0.49545678959092754,2.4816695931716244
7.130626127168746,-1.8778609115308413,4.30016369390788,0.0032130800781751375,-0.004604172257804627,0.06186257597901035,0.4855403127775366,2.4745221373345863
7.133839207246921,-1.8824650837886459,4.36202626988689,0.0032130800781751375,-0.004604172257804627,0.06186257597901035,0.49184682474270225,2.465704586809622
7.137052287325096,-1.8870692560464504,4.4238888458659,0.0032130800781751375,-0.004604172257804627,0.06186257597901035,0.49082608601443306,2.4661135953454556
7.140265367403271,-1.891673428304255,4.48575142184491,0.0032130800781751375,-0.004604172257804627,0.06186257597901035,0.4942784071093037,2.477582466789731
7.143478447481446,-1.8962776005620594,4.54761399782392,0.0032130800781751375,-0.004604172257804627,0.06186257597901035,0.49619969119196844,2.4540408019248727
7.146691527559621,-1.900881772819864,4.6094765738029295,0.0032130800781751375,-0.004604172257804627,0.06186257597901035,0.4927934970568963,2.462279225296497
7.1499046076377955,-1.9054859450776684,4.671339149781939,0.0032130800781751375,-0.004604172257804627,0.06186257597901035,0.4791651350706384,2.4601717454189833
7.15311768771597,-1.910090117335473,4.733201725760949,0.0032130800781751375,-0.004604172257804627,0.06186257597901035,0.47939558169700774,2.4617713098800964
7.156330767794145,-1.9146942895932775,4.795064301739959,0.0032130800781751375,-0.004604172257804627,0.06186257597901035,0.4672881374464811,2.47007983899061
7.15954384787232,-1.919298461851082,4.856926877718969,0.0032130800781751375,-0.004604172257804627,0.06186257597901035,0.46885067884135867,2.4736439140309443
7.162756927950495,-1.9239026341088865,4.918789453697979,0.0032130800781751375,-0.004604172257804627,0.06186257597901035,0.4621464875676799,2.472440856506841
7.16597000802867,-1.928506806366691,4.980652029676989,0.0032130800781751375,-0.004604172257804627,0.06186257597901035,0.457296982538516,2.498763419658628
7.169183088106845,-1.9331109786244955,5.042514605655999,0.0032130800781751375,-0.004604172257804627,0.06186257597901035,0.45992296151225825,2.49333503613274
7.17239616818502,-1.9377151508823,5.104377181635009,0.0032130800781751375,-0.004604172257804627,0.06186257597901035,0.4631273836343503,2.5096050833925823
7.175609248263195,-1.9423193231401046,5.166239757614019,0.0032130800781751375,-0.004604172257804627,0.06186257597901035,0.4579113575965984,2.5099655140422654
7.1788223283413695,-1.946923495397909,5.228102333593029,0.0032130800781751375,-0.004604172257804627,0.06186257597901035,0.4586069971015748,2.5072535889319485
7.182035408419544,-1.9515276676557136,5.2899649095720385,0.0032130800781751375,-0.004604172257804627,0.06186257597901035,0.4577808559914799,2.508297439713839
7.185248488497719,-1.9561318399135181,5.351827485551048,0.0032130800781751375,-0.004604172257804627,0.06186257597901035,0.4660622922239075,2.5105557386220996
7.188461568575894,-1.9607360121713227,5.413690061530058,0.0032130800781751375,-0.004604172257804627,0.06186257597901035,0.46185145985661,2.5015140778176637
7.191674648654069,-1.9653401844291272,5.475552637509068,0.0032130800781751375,-0.004604172257804627,0.06186257597901035,0.4660943979020304,2.478978545128434
7.194887728732244,-1.9699443566869317,5.537415213488078,0.0032130800781751375,-0.004604172257804627,0.06186257597901035,0.4687064115068588,2.4790866167136323
7.198100808810419,-1.9745485289447362,5.599277789467088,0.0032130800781751375,-0.004604172257804627,0.06186257597901035,0.4705176854859704,2.4754934976366862
7.201313888888594,-1.9791527012025407,5.661140365446098,0.0032130800781751375,-0.004604172257804627,0.06186257597901035,0.47881065336324136,2.470928402129884
7.204526968966769,-1.9837568734603452,5.723002941425108,0.0032130800781751375,-0.004604172257804627,0.06186257597901035,0.4739507551358069,2.4627584298500373
7.2077400490449435,-1.9883610457181498,5.784865517404118,0.0032130800781751375,-0.004604172257804627,0.06186257597901035,0.47810305484344673,2.470864471414949
7.210953129123118,-1.9929652179759543,5.846728093383128,0.0032130800781751375,-0.004604172257804627,0.06186257597901035,0.47900944779857607,2.4732548708458535
7.214166209201293,-1.9975693902337588,5.9085906693621375,0.0032130800781751375,-0.004604172257804627,0.06186257597901035,0.47339073696288897,2.4753276126912827
7.217379289279468,-2.0021735624915635,5.970453245341147,0.0032130800781751375,-0.004604172257804627,0.06186257597901035,0.4745609847410785,2.4615220036714183
7.220592369357643,-2.006777734749368,6.032315821320157,0.0032130800781751375,-0.004604172257804627,0.06186257597901035,0.4762826719937605,2.4631281616856078
7.223805449435818,-2.0113819070071726,6.094178397299167,0.0032130800781751375,-0.004604172257804627,0.06186257597901035,0.47954437258526994,2.467821378748725
7.227018529513993,-2.015986079264977,6.156040973278177,0.0032130800781751375,-0.004604172257804627,0.06186257597901035,0.48407576090959614,2.4675034446374293
7.230231609592168,-2.0205902515227816,6.217903549257187,0.0032130800781751375,-0.004604172257804627,0.06186257597901035,0.48263353556905747,2.4788546165148495
7.233444689670343,-2.025194423780586,6.279766125236197,0.0032130800781751375,-0.004604172257804627,0.06186257597901035,0.47771315076595205,2.46655854327243
7.2366577697485175,-2.0297985960383906,6.341628701215207,0.0032130800781751375,-0.004604172257804627,0.06186257597901035,0.48599926628122814,2.475430108536194
7.239870849826692,-2.034402768296195,6.403491277194217,0.0032130800781751375,-0.004604172257804627,0.06186257597901035,0.49143039918453646,2.46754185731132
7.243083929904867,-2.0390069405539997,6.465353853173227,0.0032130800781751375,-0.004604172257804627,0.06186257597901035,0.490007165147089,2.4857549611971246
7.246297009983042,-2.043611112811804,6.5272164291522365,0.0032130800781751375,-0.004604172257804627,0.06186257597901035,0.4915529570144186,2.482276298038077
7.249510090061217,-2.0482152850696087,6.5890790051312464,0.0032130800781751375,-0.004604172257804627,0.06186257597901035,0.4896742458701731,2.4925456502967114
7.252723170139392,-2.052819457327413,6.650941581110256,0.0032130800781751375,-0.004604172257804627,0.06186257597901035,0.49098873009677074,2.493418145570287
7.255936250217567,-2.0574236295852177,6.712804157089266,0.0032130800781751375,-0.004604172257804627,0.06186257597901035,0.489299940155355,2.4963493678867565
7.259149330295742,-2.0620278018430223,6.774666733068276,0.0032130800781751375,-0.004604172257804627,0.06186257597901035,0.4823935119056563,2.5029667057132023
7.262362410373917,-2.0666319741008268,6.836529309047286,0.0032130800781751375,-0.004604172257804627,0.06186257597901035,0.48885741835055685,2.5144305033405794
7.2655754904520915,-2.0712361463586313,6.898391885026296,0.0032130800781751375,-0.004604172257804627,0.06186257597901035,0.4884205975863699,2.5068951572476728
7.268788570530266,-2.075840318616436,6.960254461005306,0.0032130800781751375,-0.004604172257804627,0.06186257597901035,0.48923083917475385,2.503163083026654
7.272001650608441,-2.0804444908742403,7.022117036984316,0.0032130800781751375,-0.004604172257804627,0.06186257597901035,0.4896167946309633,2.514381979544858
7.275214730686616,-2.085048663132045,7.083979612963326,0.0032130800781751375,-0.004604172257804627,0.06186257597901035,0.49198403336971874,2.5138759173976553
7.278427810764791,-2.0896528353898494,7.145842188942336,0.0032130800781751375,-0.004604172257804627,0.06186257597901035,0.5009775770775662,2.5180380902824866
7.281640890842966,-2.094257007647654,7.2077047649213455,0.0032130800781751375,-0.004604172257804627,0.06186257597901035,0.4924087914774821,2.5078643829775196
7.284853970921141,-2.0988611799054584,7.269567340900355,0.0032130800781751375,-0.004604172257804627,0.06186257597901035,0.49477211366004414,2.4931508399083855
7.288067050999316,-2.103465352163263,7.331429916879365,0.0032130800781751375,-0.004604172257804627,0.06186257597901035,0.4939275626974526,2.4926211135515093
7.291280131077491,-2.1080695244210674,7.393292492858375,0.0032130800781751375,-0.004604172257804627,0.06186257597901035,0.49241555547243593,2.498737248378025
7.2944932111556655,-2.112673696678872,7.455155068837385,0.0032130800781751375,-0.004604172257804627,0.06186257597901035,0.49678257393673536,2.4938344952531946
7.29770629123384,-2.1172778689366765,7.517017644816395,0.0032130800781751375,-0.004604172257804627,0.06186257597901035,0.5000949519679517,2.4836572263078214
7.300919371312015,-2.121882041194481,7.578880220795405,0.0032130800781751375,-0.004604172257804627,0.06186257597901035,0.49791469098584884,2.4885772119597704
7.30413245139019,-2.1264862134522855,7.640742796774415,0.0032130800781751375,-0.004604172257804627,0.06186257597901035,0.5018673997882657,2.5039516040036296
7.307345531468365,-2.13109038571009,7.702605372753425,0.0032130800781751375,-0.004604172257804627,0.06186257597901035,0.49605017225003306,2.486947585924847
7.31055861154654,-2.1356945579678945,7.764467948732435,0.0032130800781751375,-0.004604172257804627,0.06186257597901035,0.49674625296345026,2.486509796291304
7.313771691624715,-2.140298730225699,7.8263305247114445,0.0032130800781751375,-0.004604172257804627,0.06186257597901035,0.4935140572299748,2.477303613772177
7.31698477170289,-2.1449029024835036,7.888193100690454,0.0032130800781751375,-0.004604172257804627,0.06186257597901035,0.49014982901392357,2.4945463566558215
7.320197851781065,-2.149507074741308,7.950055676669464,0.0032130800781751375,-0.004604172257804627,0.06186257597901035,0.4814101928041575,2.4797904643571984
7.3234109318592395,-2.1541112469991126,8.011918252648474,0.0032130800781751375,-0.004604172257804627,0.06186257597901035,0.4762942801476518,2.482572741941502
7.326624011937414,-2.158715419256917,8.073780828627484,0.0032130800781751375,-0.004604172257804627,0.06186257597901035,0.4778861616190244,2.469104438657687
7.329837092015589,-2.1633195915147216,8.135643404606494,0.0032130800781751375,-0.004604172257804627,0.06186257597901035,0.4804069791842403,2.4598888365990774
7.333050172093764,-2.167923763772526,8.197505980585504,0.0032130800781751375,-0.004604172257804627,0.06186257597901035,0.4776338104970255,2.468789452575706
7.336263252171939,-2.1725279360303307,8.259368556564514,0.0032130800781751375,-0.004604172257804627,0.06186257597901035,0.4798931979662407,2.4739090790886866
7.339476332250114,-2.177132108288135,8.321231132543524,0.0032130800781751375,-0.004604172257804627,0.06186257597901035,0.48603062737665104,2.475195868578833
7.342689412328289,-2.1817362805459397,8.383093708522534,0.0032130800781751375,-0.004604172257804627,0.06186257597901035,0.4819626634114189,2.4813457339140674
7.345902492406464,-2.1863404528037442,8.444956284501544,0.0032130800781751375,-0.004604172257804627,0.06186257597901035,0.48092380848875715,2.4927755166900294
7.349115572484639,-2.1909446250615487,8.506818860480553,0.0032130800781751375,-0.004604172257804627,0.06186257597901035,0.4764570761305612,2.466878856983987
7.3523286525628135,-2.1955487973193533,8.568681436459563,0.0032130800781751375,-0.004604172257804627,0.06186257597901035,0.48114645157378677,2.452795005063492
7.355541732640988,-2.200152969577158,8.630544012438573,0.0032130800781751375,-0.004604172257804627,0.06186257597901035,0.48132300477486056,2.454801320121578
7.358754812719163,-2.2047571418349623,8.692406588417583,0.0032130800781751375,-0.004604172257804627,0.06186257597901035,0.4778046465767001,2.4527862883431144
7.361967892797338,-2.209361314092767,8.754269164396593,0.0032130800781751375,-0.004604172257804627,0.06186257597901035,0.47771754931332433,2.4474630784681133
7.365180972875513,-2.2139654863505713,8.816131740375603,0.0032130800781751375,-0.004604172257804627,0.06186257597901035,0.4723985282480449,2.455522192285085
7.368394052953688,-2.218569658608376,8.877994316354613,0.0032130800781751375,-0.004604172257804627,0.06186257597901035,0.46305848816481077,2.4764713348001055
7.371607133031863,-2.2231738308661804,8.939856892333623,0.0032130800781751375,-0.004604172257804627,0.06186257597901035,0.47114647825430417,2.4725059914176475
7.374820213110038,-2.227778003123985,9.001719468312633,0.0032130800781751375,-0.004604172257804627,0.06186257597901035,0.4720319619263113,2.4578416371108713
7.378033293188213,-2.2323821753817894,9.063582044291643,0.0032130800781751375,-0.004604172257804627,0.06186257597901035,0.4682384412136958,2.452275985824697
7.3812463732663876,-2.236986347639594,9.125444620270653,0.0032130800781751375,-0.004604172257804627,0.06186257597901035,0.46994182464126627,2.4382607242695498
7.384459453344562,-2.2415905198973984,9.187307196249662,0.0032130800781751375,-0.004604172257804627,0.06186257597901035,0.4671035662531932,2.4313591107331876
7.387672533422737,-2.246194692155203,9.249169772228672,0.0032130800781751375,-0.004604172257804627,0.06186257597901035,0.4669125927236412,2.4423871453576615
7.390885613500912,-2.2507988644130075,9.311032348207682,0.0032130800781751375,-0.004604172257804627,0.06186257597901035,0.4716079293697132,2.4483689112121665
7.394098693579087,-2.255403036670812,9.372894924186692,0.0032130800781751375,-0.004604172257804627,0.06186257597901035,0.4740217571161782,2.448421857461711
7.397311773657262,-2.2600072089286165,9.434757500165702,0.0032130800781751375,-0.004604172257804627,0.06186257597901035,0.4734165888374536,2.4417746354254817
7.400524853735437,-2.264611381186421,9.496620076144712,0.0032130800781751375,-0.004604172257804627,0.06186257597901035,0.4635568776124393,2.4350250372551123
7.403737933813612,-2.2692155534442255,9.558482652123722,0.0032130800781751375,-0.004604172257804627,0.06186257597901035,0.45734618054175796,2.427913773985021
7.413210790068773,-2.265008939577672,9.493494358295898,0.009472856255161238,0.004206613866553428,-0.0649882938278232,0.45627559582624333,2.430807446654819
7.422683646323935,-2.2608023257111185,9.428506064468074,0.009472856255161238,0.004206613866553428,-0.0649882938278232,0.45783362272490613,2.4234634983521697
7.4321565025790965,-2.256595711844565,9.36351777064025,0.009472856255161238,0.004206613866553428,-0.0649882938278232,0.44872143871249875,2.424160492437629
7.441629358834258,-2.2523890979780115,9.298529476812426,0.009472856255161238,0.004206613866553428,-0.0649882938278232,0.4468671925001368,2.4126547292317464
7.45110221508942,-2.248182484111458,9.233541182984602,0.009472856255161238,0.004206613866553428,-0.0649882938278232,0.4440763415389501,2.42402702104942
7.460575071344581,-2.2439758702449044,9.168552889156778,0.009472856255161238,0.004206613866553428,-0.0649882938278232,0.4467270255482642,2.430631717327829
7.470047927599743,-2.239769256378351,9.103564595328955,0.009472856255161238,0.004206613866553428,-0.0649882938278232,0.44894491896890226,2.4392107709174127
7.4795207838549045,-2.2355626425117974,9.03857630150113,0.009472856255161238,0.004206613866553428,-0.0649882938278232,0.44802829622136947,2.436567981437894
7.488993640110066,-2.231356028645244,8.973588007673307,0.009472856255161238,0.004206613866553428,-0.0649882938278232,0.4424802680425757,2.4249939293464173
7.498466496365228,-2.2271494147786903,8.908599713845483,0.009472856255161238,0.004206613866553428,-0.0649882938278232,0.4465937332178169,2.4265290865817803
7.507939352620389,-2.222942800912137,8.843611420017659,0.009472856255161238,0.004206613866553428,-0.0649882938278232,0.44231041921073655,2.406001504342922
7.517412208875551,-2.2187361870455833,8.778623126189835,0.009472856255161238,0.004206613866553428,-0.0649882938278232,0.43026781484113874,2.398632567934943
7.526885065130712,-2.2145295731790298,8.713634832362011,0.009472856255161238,0.004206613866553428,-0.0649882938278232,0.4358445999633877,2.4041581038665134
