theta,phi,z,dtheta,dphi,dz,ecg,eda
1.3948242308852552,1.1646898895352478,2.8604723980548377,0.0,0.0,0.0,0.39531054027554086,1.314007502815539
1.3604362202489602,1.1635875586204336,2.934829863211307,-0.03438801063629507,-0.0011023309148141998,0.07435746515646938,0.39531054027554086,1.314007502815539
1.3260482096126651,1.1624852277056195,3.0091873283677764,-0.03438801063629507,-0.0011023309148141998,0.07435746515646938,0.39531054027554086,1.314007502815539
1.29166019897637,1.1613828967908053,3.0835447935242457,-0.03438801063629507,-0.0011023309148141998,0.07435746515646938,0.39531054027554086,1.314007502815539
1.257272188340075,1.1602805658759912,3.157902258680715,-0.03438801063629507,-0.0011023309148141998,0.07435746515646938,0.39531054027554086,1.314007502815539
1.22288417770378,1.159178234961177,3.2322597238371844,-0.03438801063629507,-0.0011023309148141998,0.07435746515646938,0.40023475570212574,1.314007502815539
1.188496167067485,1.1580759040463628,3.3066171889936538,-0.03438801063629507,-0.0011023309148141998,0.07435746515646938,0.3933186059089764,1.314007502815539
1.15410815643119,1.1569735731315487,3.380974654150123,-0.03438801063629507,-0.0011023309148141998,0.07435746515646938,0.3933186059089764,1.314007502815539
1.1197201457948949,1.1558712422167345,3.4553321193065925,-0.03438801063629507,-0.0011023309148141998,0.07435746515646938,0.3933186059089764,1.314007502815539
1.0853321351585998,1.1547689113019204,3.529689584463062,-0.03438801063629507,-0.0011023309148141998,0.07435746515646938,0.3933186059089764,1.314007502815539
1.0509441245223048,1.1536665803871062,3.604047049619531,-0.03438801063629507,-0.0011023309148141998,0.07435746515646938,0.3933186059089764,1.314007502815539
1.0165561138860097,1.152564249472292,3.6784045147760005,-0.03438801063629507,-0.0011023309148141998,0.07435746515646938,0.3933186059089764,1.314007502815539
0.9821681032497147,1.151461918557478,3.75276197993247,-0.03438801063629507,-0.0011023309148141998,0.07435746515646938,0.3933186059089764,1.314007502815539
0.9477800926134197,1.1503595876426638,3.827119445088939,-0.03438801063629507,-0.0011023309148141998,0.07435746515646938,0.3933186059089764,1.314007502815539
0.9133920819771246,1.1492572567278496,3.9014769102454085,-0.03438801063629507,-0.0011023309148141998,0.07435746515646938,0.3933186059089764,1.314007502815539
0.8790040713408296,1.1481549258130355,3.975834375401878,-0.03438801063629507,-0.0011023309148141998,0.07435746515646938,0.3933186059089764,1.314007502815539
0.8446160607045345,1.1470525948982213,4.050191840558347,-0.03438801063629507,-0.0011023309148141998,0.07435746515646938,0.3933186059089764,1.314007502815539
0.8102280500682395,1.1459502639834072,4.124549305714817,-0.03438801063629507,-0.0011023309148141998,0.07435746515646938,0.39578487443053806,1.314007502815539
0.7758400394319445,1.144847933068593,4.198906770871287,-0.03438801063629507,-0.0011023309148141998,0.07435746515646938,0.39014174186545236,1.314007502815539
0.7414520287956494,1.1437456021537789,4.273264236027757,-0.03438801063629507,-0.0011023309148141998,0.07435746515646938,0.3877042588174163,1.314007502815539
0.7070640181593544,1.1426432712389647,4.347621701184226,-0.03438801063629507,-0.0011023309148141998,0.07435746515646938,0.38400184902746276,1.314007502815539
0.6726760075230593,1.1415409403241505,4.421979166340696,-0.03438801063629507,-0.0011023309148141998,0.07435746515646938,0.388987621478873,1.314007502815539
0.6382879968867643,1.1404386094093364,4.496336631497166,-0.03438801063629507,-0.0011023309148141998,0.07435746515646938,0.39111858451528003,1.314007502815539
0.6038999862504693,1.1393362784945222,4.570694096653636,-0.03438801063629507,-0.0011023309148141998,0.07435746515646938,0.38726813626678,1.314007502815539
0.5695119756141742,1.138233947579708,4.645051561810106,-0.03438801063629507,-0.0011023309148141998,0.07435746515646938,0.38941253792408465,1.314007502815539
0.5351239649778792,1.137131616664894,4.719409026966575,-0.03438801063629507,-0.0011023309148141998,0.07435746515646938,0.3845216498806165,1.314007502815539
0.5007359543415841,1.1360292857500798,4.793766492123045,-0.03438801063629507,-0.0011023309148141998,0.07435746515646938,0.38331196812998525,1.314007502815539
0.4663479437052891,1.1349269548352656,4.868123957279515,-0.03438801063629507,-0.0011023309148141998,0.07435746515646938,0.388240690302344,1.314007502815539
0.43195993306899405,1.1338246239204515,4.942481422435985,-0.03438801063629507,-0.0011023309148141998,0.07435746515646938,0.37336777349848954,1.314007502815539
0.397571922432699,1.1327222930056373,5.0168388875924546,-0.03438801063629507,-0.0011023309148141998,0.07435746515646938,0.3696772269025137,1.314007502815539
0.36318391179640397,1.1316199620908232,5.091196352748924,-0.03438801063629507,-0.0011023309148141998,0.07435746515646938,0.3743943663406866,1.314007502815539
0.3287959011601089,1.130517631176009,5.165553817905394,-0.03438801063629507,-0.0011023309148141998,0.07435746515646938,0.3725133495097905,1.314007502815539
0.2944078905238139,1.1294153002611949,5.239911283061864,-0.03438801063629507,-0.0011023309148141998,0.07435746515646938,0.3736491696096099,1.314007502815539
0.26001987988751885,1.1283129693463807,5.314268748218334,-0.03438801063629507,-0.0011023309148141998,0.07435746515646938,0.3751783685690863,1.314007502815539
0.22563186925122378,1.1272106384315665,5.3886262133748035,-0.03438801063629507,-0.0011023309148141998,0.07435746515646938,0.3809743734235488,1.314007502815539
0.1912438586149287,1.1261083075167524,5.462983678531273,-0.03438801063629507,-0.0011023309148141998,0.07435746515646938,0.3904832568395976,1.314007502815539
0.15685584797863364,1.1250059766019382,5.537341143687743,-0.03438801063629507,-0.0011023309148141998,0.07435746515646938,0.39229806940560047,1.314007502815539
0.12246783734233857,1.123903645687124,5.611698608844213,-0.03438801063629507,-0.0011023309148141998,0.07435746515646938,0.39018265307167715,1.314007502815539
0.0880798267060435,1.12280131477231,5.686056074000683,-0.03438801063629507,-0.0011023309148141998,0.07435746515646938,0.3848087840861409,1.314007502815539
0.05369181606974843,1.1216989838574958,5.7604135391571525,-0.03438801063629507,-0.0011023309148141998,0.07435746515646938,0.3819126591601228,1.314007502815539
0.019303805433453364,1.1205966529426816,5.834771004313622,-0.03438801063629507,-0.0011023309148141998,0.07435746515646938,0.3644930819219895,1.314007502815539
-0.015084205202841705,1.1194943220278675,5.909128469470092,-0.03438801063629507,-0.0011023309148141998,0.07435746515646938,0.3663080884288359,1.314007502815539
-0.049472215839136774,1.1183919911130533,5.983485934626562,-0.03438801063629507,-0.0011023309148141998,0.07435746515646938,0.3710105681193044,1.314007502815539
-0.08386022647543184,1.1172896601982392,6.057843399783032,-0.03438801063629507,-0.0011023309148141998,0.07435746515646938,0.3792891401407962,1.314007502815539
-0.11824823711172691,1.116187329283425,6.1322008649395015,-0.03438801063629507,-0.0011023309148141998,0.07435746515646938,0.37806078865550385,1.314007502815539
-0.15263624774802198,1.1150849983686109,6.206558330095971,-0.03438801063629507,-0.0011023309148141998,0.07435746515646938,0.37292585156370706,1.314007502815539
-0.18702425838431705,1.1139826674537967,6.280915795252441,-0.03438801063629507,-0.0011023309148141998,0.07435746515646938,0.37331265215087034,1.314007502815539
-0.22141226902061212,1.1128803365389826,6.355273260408911,-0.03438801063629507,-0.0011023309148141998,0.07435746515646938,0.3721266108217915,1.314007502815539
-0.2558002796569072,1.1117780056241684,6.429630725565381,-0.03438801063629507,-0.0011023309148141998,0.07435746515646938,0.37020761366418997,1.314007502815539
-0.29018829029320226,1.1106756747093542,6.50398819072185,-0.03438801063629507,-0.0011023309148141998,0.07435746515646938,0.37376692572920495,1.314007502815539
-0.3245763009294973,1.10957334379454,6.57834565587832,-0.03438801063629507,-0.0011023309148141998,0.07435746515646938,0.3695315833424345,1.314007502815539
-0.35896431156579234,1.108471012879726,6.65270312103479,-0.03438801063629507,-0.0011023309148141998,0.07435746515646938,0.3674815903373257,1.314007502815539
-0.3933523222020874,1.1073686819649118,6.72706058619126,-0.03438801063629507,-0.0011023309148141998,0.07435746515646938,0.368600928303784,1.314007502815539
-0.4277403328383824,1.1062663510500976,6.80141805134773,-0.03438801063629507,-0.0011023309148141998,0.07435746515646938,0.37167749776914943,1.314007502815539
-0.46212834347467746,1.1051640201352835,6.875775516504199,-0.03438801063629507,-0.0011023309148141998,0.07435746515646938,0.36943014838632604,1.314007502815539
-0.40777740961284287,1.1085172078388796,6.909771967839873,0.05435093386183458,0.0033531877035962387,0.03399645133567359,0.37028558313925036,1.314007502815539
-0.3534264757510083,1.1118703955424758,6.943768419175547,0.05435093386183458,0.0033531877035962387,0.03399645133567359,0.3774816448132203,1.314007502815539
-0.2990755418891737,1.115223583246072,6.977764870511221,0.05435093386183458,0.0033531877035962387,0.03399645133567359,0.37718692764607026,1.314007502815539
-0.24472460802733909,1.1185767709496681,7.011761321846895,0.05435093386183458,0.0033531877035962387,0.03399645133567359,0.37516965962596716,1.314007502815539
-0.1903736741655045,1.1219299586532643,7.045757773182569,0.05435093386183458,0.0033531877035962387,0.03399645133567359,0.3806018883174274,1.314007502815539
-0.1360227403036699,1.1252831463568604,7.0797542245182425,0.05435093386183458,0.0033531877035962387,0.03399645133567359,0.3883735699386519,1.314007502815539
-0.08167180644183532,1.1286363340604566,7.113750675853916,0.05435093386183458,0.0033531877035962387,0.03399645133567359,0.3862436491111473,1.314007502815539
-0.027320872580000738,1.1319895217640528,7.14774712718959,0.05435093386183458,0.0033531877035962387,0.03399645133567359,0.39332854313869625,1.314007502815539
0.027030061281833842,1.135342709467649,7.181743578525264,0.05435093386183458,0.0033531877035962387,0.03399645133567359,0.39363624100817785,1.314007502815539
0.08138099514366842,1.138695897171245,7.215740029860938,0.05435093386183458,0.0033531877035962387,0.03399645133567359,0.4015178516539199,1.314007502815539
0.09778536620960807,1.1344079078956983,7.243669506199149,0.01640437106593964,-0.004287989275546672,0.027929476338211384,0.4061754215225993,1.314007502815539
0.11418973727554771,1.1301199186201516,7.27159898253736,0.01640437106593964,-0.004287989275546672,0.027929476338211384,0.4078511972857079,1.3203573619593205
0.13059410834148735,1.1258319293446049,7.299528458875571,0.01640437106593964,-0.004287989275546672,0.027929476338211384,0.4039640476133347,1.3237121608918285
0.146998479407427,1.121543940069058,7.327457935213782,0.01640437106593964,-0.004287989275546672,0.027929476338211384,0.40016941625960933,1.309560603129178
0.16340285047336664,1.1172559507935114,7.355387411551993,0.01640437106593964,-0.004287989275546672,0.027929476338211384,0.4028192153482438,1.323509198105421
0.1838006927041719,1.119285338350266,7.336068523305396,0.020397842230805263,0.0020293875567544443,-0.019318888246596545,0.4026095410684335,1.3425450849019436
0.20419853493497717,1.1213147259070204,7.3167496350588,0.020397842230805263,0.0020293875567544443,-0.019318888246596545,0.40427991661578166,1.340055612660073
0.22459637716578243,1.123344113463775,7.2974307468122035,0.020397842230805263,0.0020293875567544443,-0.019318888246596545,0.4031849260029823,1.3531426849629433
0.2449942193965877,1.1253735010205295,7.278111858565607,0.020397842230805263,0.0020293875567544443,-0.019318888246596545,0.3968378478804507,1.3546767654904128
0.26539206162739293,1.127402888577284,7.258792970319011,0.020397842230805263,0.0020293875567544443,-0.019318888246596545,0.3946363312197927,1.3436021463364638
0.2857899038581982,1.1294322761340385,7.239474082072414,0.020397842230805263,0.0020293875567544443,-0.019318888246596545,0.38897140904196986,1.3424008350430767
0.30618774608900345,1.131461663690793,7.220155193825818,0.020397842230805263,0.0020293875567544443,-0.019318888246596545,0.38744600987530264,1.349072760025119
0.3265855883198087,1.1334910512475476,7.200836305579221,0.020397842230805263,0.0020293875567544443,-0.019318888246596545,0.382423520667448,1.3505959890209194
0.3583939720101997,1.1425260606026575,7.274830013775515,0.031808383690390955,0.009035009355110002,0.07399370819629322,0.3881360800661451,1.367091469921225
0.39020235570059064,1.1515610699577674,7.348823721971808,0.031808383690390955,0.009035009355110002,0.07399370819629322,0.3858778952365072,1.3659135190746716
0.4220107393909816,1.1605960793128773,7.422817430168101,0.031808383690390955,0.009035009355110002,0.07399370819629322,0.3787053735689294,1.3666270908896903
0.45381912308137257,1.1696310886679873,7.496811138364395,0.031808383690390955,0.009035009355110002,0.07399370819629322,0.3816016753285768,1.3750259125722775
0.48562750677176353,1.1786660980230972,7.570804846560688,0.031808383690390955,0.009035009355110002,0.07399370819629322,0.38246302422582046,1.3758173712880573
0.5174358904621544,1.187701107378207,7.6447985547569814,0.031808383690390955,0.009035009355110002,0.07399370819629322,0.38614156374612796,1.3889577863718197
0.5492442741525454,1.196736116733317,7.718792262953275,0.031808383690390955,0.009035009355110002,0.07399370819629322,0.3917250346835165,1.380913172388883
0.5810526578429364,1.205771126088427,7.792785971149568,0.031808383690390955,0.009035009355110002,0.07399370819629322,0.3847469129805485,1.3824838429442166
0.6128610415333273,1.2148061354435369,7.8667796793458615,0.031808383690390955,0.009035009355110002,0.07399370819629322,0.3848788594354297,1.3865763010411896
0.6446694252237183,1.2238411447986468,7.940773387542155,0.031808383690390955,0.009035009355110002,0.07399370819629322,0.37923104481964415,1.3951010962696555
0.6764778089141092,1.2328761541537567,8.014767095738447,0.031808383690390955,0.009035009355110002,0.07399370819629322,0.37878600387812145,1.3876449868071674
0.7082861926045002,1.2419111635088667,8.08876080393474,0.031808383690390955,0.009035009355110002,0.07399370819629322,0.3840087077813173,1.3847489228200225
0.7400945762948912,1.2509461728639766,8.162754512131032,0.031808383690390955,0.009035009355110002,0.07399370819629322,0.3860531291254861,1.3948724611124141
0.7719029599852821,1.2599811822190865,8.236748220327325,0.031808383690390955,0.009035009355110002,0.07399370819629322,0.38922611848385497,1.394116064234793
0.8037113436756731,1.2690161915741964,8.310741928523617,0.031808383690390955,0.009035009355110002,0.07399370819629322,0.3890696445415051,1.3861365792398816
0.8355197273660641,1.2780512009293064,8.38473563671991,0.031808383690390955,0.009035009355110002,0.07399370819629322,0.3885258168701812,1.3977023226000926
0.867328111056455,1.2870862102844163,8.458729344916202,0.031808383690390955,0.009035009355110002,0.07399370819629322,0.38977592035289815,1.3999770322892036
0.899136494746846,1.2961212196395262,8.532723053112495,0.031808383690390955,0.009035009355110002,0.07399370819629322,0.39338485890453717,1.4015271290267053
0.930944878437237,1.3051562289946361,8.606716761308787,0.031808383690390955,0.009035009355110002,0.07399370819629322,0.3872150290968216,1.3962104240688713
0.9627532621276279,1.314191238349746,8.68071046950508,0.031808383690390955,0.009035009355110002,0.07399370819629322,0.38951099465512,1.3887152913351435
0.9945616458180189,1.323226247704856,8.754704177701372,0.031808383690390955,0.009035009355110002,0.07399370819629322,0.38555890807666326,1.3955575182077915
1.0263700295084097,1.332261257059966,8.828697885897665,0.031808383690390955,0.009035009355110002,0.07399370819629322,0.39055970927481576,1.3955073500964517
1.0581784131988006,1.3412962664150758,8.902691594093957,0.031808383690390955,0.009035009355110002,0.07399370819629322,0.39779987937817163,1.3920137372641659
1.0899867968891914,1.3503312757701857,8.97668530229025,0.031808383690390955,0.009035009355110002,0.07399370819629322,0.39491187157446767,1.4018954934447367
1.1217951805795823,1.3593662851252957,9.050679010486542,0.031808383690390955,0.009035009355110002,0.07399370819629322,0.3945237804524759,1.415722614861502
1.1536035642699731,1.3684012944804056,9.124672718682834,0.031808383690390955,0.009035009355110002,0.07399370819629322,0.38798115017155227,1.415284837733015
1.185411947960364,1.3774363038355155,9.198666426879127,0.031808383690390955,0.009035009355110002,0.07399370819629322,0.3887971359391733,1.4082215139319743
1.2172203316507548,1.3864713131906254,9.27266013507542,0.031808383690390955,0.009035009355110002,0.07399370819629322,0.38000710429110246,1.4023959927121612
1.2490287153411457,1.3955063225457354,9.346653843271712,0.031808383690390955,0.009035009355110002,0.07399370819629322,0.37571836277017345,1.4081966607193337
1.2808370990315365,1.4045413319008453,9.420647551468004,0.031808383690390955,0.009035009355110002,0.07399370819629322,0.3706422620897591,1.4057118125139703
1.3126454827219274,1.4135763412559552,9.494641259664297,0.031808383690390955,0.009035009355110002,0.07399370819629322,0.3692375601509264,1.418354405421067
1.3444538664123182,1.4226113506110651,9.56863496786059,0.031808383690390955,0.009035009355110002,0.07399370819629322,0.36994212099787005,1.4207259329549036
1.376262250102709,1.431646359966175,9.642628676056882,0.031808383690390955,0.009035009355110002,0.07399370819629322,0.3703570903391007,1.4321544188824313
1.4080706337931,1.440681369321285,9.716622384253174,0.031808383690390955,0.009035009355110002,0.07399370819629322,0.37226010238856344,1.441663317291474
1.4398790174834908,1.449716378676395,9.790616092449467,0.031808383690390955,0.009035009355110002,0.07399370819629322,0.3729415912834736,1.4210854765672862
1.4716874011738816,1.4587513880315048,9.86460980064576,0.031808383690390955,0.009035009355110002,0.07399370819629322,0.36325198583900825,1.3954931281116405
1.5034957848642725,1.4677863973866148,9.938603508842052,0.031808383690390955,0.009035009355110002,0.07399370819629322,0.35990294269624334,1.389594524204866
1.5081635392379829,1.478141128724458,9.864900697209631,0.004667754373710279,0.010354731337843176,-0.07370281163242072,0.35439780467921045,1.3843880490590654
1.5128312936116932,1.488495860062301,9.79119788557721,0.004667754373710279,0.010354731337843176,-0.07370281163242072,0.3628186509423666,1.363199100916335
1.5174990479854036,1.4988505914001442,9.71749507394479,0.004667754373710279,0.010354731337843176,-0.07370281163242072,0.35984002177647806,1.3622680504084754
1.522166802359114,1.5092053227379874,9.643792262312369,0.004667754373710279,0.010354731337843176,-0.07370281163242072,0.35108291742887116,1.3473990517135366
1.5268345567328243,1.5195600540758305,9.570089450679948,0.004667754373710279,0.010354731337843176,-0.07370281163242072,0.35117937865411514,1.3551084799672481
1.5315023111065347,1.5299147854136737,9.496386639047527,0.004667754373710279,0.010354731337843176,-0.07370281163242072,0.35186659358490924,1.3471358607034665
1.536170065480245,1.5402695167515168,9.422683827415106,0.004667754373710279,0.010354731337843176,-0.07370281163242072,0.3563248504634309,1.3419280055626783
1.5408378198539554,1.55062424808936,9.348981015782686,0.004667754373710279,0.010354731337843176,-0.07370281163242072,0.3528664359373179,1.3534653181440077
1.5455055742276658,1.560978979427203,9.275278204150265,0.004667754373710279,0.010354731337843176,-0.07370281163242072,0.3501335211078064,1.3550452983543217
1.5501733286013761,1.5713337107650462,9.201575392517844,0.004667754373710279,0.010354731337843176,-0.07370281163242072,0.35445545611093926,1.3446469614029974
1.5548410829750865,1.5816884421028894,9.127872580885423,0.004667754373710279,0.010354731337843176,-0.07370281163242072,0.356402250373306,1.3457904488730406
1.5595088373487969,1.5920431734407325,9.054169769253003,0.004667754373710279,0.010354731337843176,-0.07370281163242072,0.35978896338766336,1.350133849376688
1.5641765917225072,1.6023979047785757,8.980466957620582,0.004667754373710279,0.010354731337843176,-0.07370281163242072,0.3539475610905836,1.3506157905981697
1.5688443460962176,1.6127526361164188,8.906764145988161,0.004667754373710279,0.010354731337843176,-0.07370281163242072,0.3470113832225175,1.353373223915008
1.573512100469928,1.623107367454262,8.83306133435574,0.004667754373710279,0.010354731337843176,-0.07370281163242072,0.34534160394998487,1.3487207030511652
1.5781798548436383,1.6334620987921051,8.75935852272332,0.004667754373710279,0.010354731337843176,-0.07370281163242072,0.33319429668949024,1.3489621368283091
1.5828476092173487,1.6438168301299483,8.685655711090899,0.004667754373710279,0.010354731337843176,-0.07370281163242072,0.33941342470237906,1.3577157335035028
1.587515363591059,1.6541715614677914,8.611952899458478,0.004667754373710279,0.010354731337843176,-0.07370281163242072,0.3411489436018949,1.3659172987317174
1.5921831179647694,1.6645262928056346,8.538250087826057,0.004667754373710279,0.010354731337843176,-0.07370281163242072,0.3383698612551912,1.3656497033696515
1.5968508723384798,1.6748810241434777,8.464547276193636,0.004667754373710279,0.010354731337843176,-0.07370281163242072,0.34022806200842354,1.3525850309035807
1.6015186267121901,1.6852357554813209,8.390844464561216,0.004667754373710279,0.010354731337843176,-0.07370281163242072,0.33490114958011674,1.3663452658054491
1.6061863810859005,1.695590486819164,8.317141652928795,0.004667754373710279,0.010354731337843176,-0.07370281163242072,0.33484412800420843,1.3702936043016056
1.6108541354596109,1.7059452181570072,8.243438841296374,0.004667754373710279,0.010354731337843176,-0.07370281163242072,0.3344255263931014,1.3632952094847086
1.6155218898333212,1.7162999494948503,8.169736029663953,0.004667754373710279,0.010354731337843176,-0.07370281163242072,0.3342065744950073,1.35634063035334
1.6201896442070316,1.7266546808326935,8.096033218031533,0.004667754373710279,0.010354731337843176,-0.07370281163242072,0.32254614639727286,1.3611940277813437
1.624857398580742,1.7370094121705366,8.022330406399112,0.004667754373710279,0.010354731337843176,-0.07370281163242072,0.3262624933400159,1.3443065217542178
1.6295251529544523,1.7473641435083798,7.948627594766691,0.004667754373710279,0.010354731337843176,-0.07370281163242072,0.31236314824975736,1.3461553668657282
1.6341929073281627,1.757718874846223,7.87492478313427,0.004667754373710279,0.010354731337843176,-0.07370281163242072,0.3067285155403557,1.3509719593875622
1.638860661701873,1.768073606184066,7.80122197150185,0.004667754373710279,0.010354731337843176,-0.07370281163242072,0.3027118606012166,1.3513249384301156
1.6435284160755834,1.7784283375219092,7.727519159869429,0.004667754373710279,0.010354731337843176,-0.07370281163242072,0.30482278158816717,1.336371917237919
1.6481961704492938,1.7887830688597524,7.653816348237008,0.004667754373710279,0.010354731337843176,-0.07370281163242072,0.30567867744067273,1.338053616178458
1.6528639248230041,1.7991378001975955,7.580113536604587,0.004667754373710279,0.010354731337843176,-0.07370281163242072,0.3113939803688559,1.3389534161863257
1.6575316791967145,1.8094925315354387,7.5064107249721665,0.004667754373710279,0.010354731337843176,-0.07370281163242072,0.3142115116531473,1.3484640254844604
1.6621994335704249,1.8198472628732818,7.432707913339746,0.004667754373710279,0.010354731337843176,-0.07370281163242072,0.314283510352816,1.3368815390197628
1.6668671879441352,1.830201994211125,7.359005101707325,0.004667754373710279,0.010354731337843176,-0.07370281163242072,0.31417047714969115,1.3499957692724063
1.6715349423178456,1.840556725548968,7.285302290074904,0.004667754373710279,0.010354731337843176,-0.07370281163242072,0.3078094016881741,1.3490734939627613
1.676202696691556,1.8509114568868112,7.2115994784424835,0.004667754373710279,0.010354731337843176,-0.07370281163242072,0.3029078451959504,1.3340013016273053
1.6808704510652663,1.8612661882246544,7.137896666810063,0.004667754373710279,0.010354731337843176,-0.07370281163242072,0.30408121048777353,1.3399663647100544
1.6855382054389767,1.8716209195624975,7.064193855177642,0.004667754373710279,0.010354731337843176,-0.07370281163242072,0.300105512490121,1.34827186575091
1.690205959812687,1.8819756509003407,6.990491043545221,0.004667754373710279,0.010354731337843176,-0.07370281163242072,0.29115130286880314,1.351036428581277
1.6948737141863974,1.8923303822381838,6.9167882319128005,0.004667754373710279,0.010354731337843176,-0.07370281163242072,0.2874751419231601,1.3528464024103508
1.6995414685601078,1.902685113576027,6.84308542028038,0.004667754373710279,0.010354731337843176,-0.07370281163242072,0.29233179953855437,1.3344992485342106
1.7042092229338182,1.9130398449138701,6.769382608647959,0.004667754373710279,0.010354731337843176,-0.07370281163242072,0.2875228181476593,1.3458655725956359
1.7088769773075285,1.9233945762517133,6.695679797015538,0.004667754373710279,0.010354731337843176,-0.07370281163242072,0.28750481243012943,1.3514928480214292
1.7135447316812389,1.9337493075895564,6.621976985383117,0.004667754373710279,0.010354731337843176,-0.07370281163242072,0.2837995827208698,1.3544106728363399
1.7182124860549493,1.9441040389273996,6.548274173750697,0.004667754373710279,0.010354731337843176,-0.07370281163242072,0.2836312325496205,1.3592912972085232
1.7228802404286596,1.9544587702652427,6.474571362118276,0.004667754373710279,0.010354731337843176,-0.07370281163242072,0.2844235454235188,1.3495660112947918
1.72754799480237,1.9648135016030859,6.400868550485855,0.004667754373710279,0.010354731337843176,-0.07370281163242072,0.2852722295058379,1.3400938883321374
1.7188735779781115,1.9636052900846104,6.41192534867401,-0.008674416824258428,-0.0012082115184755958,0.011056798188154356,0.28183954511563036,1.341412410034098
1.710199161153853,1.9623970785661349,6.422982146862164,-0.008674416824258428,-0.0012082115184755958,0.011056798188154356,0.27921560139198065,1.3639809513783054
1.7015247443295944,1.9611888670476594,6.434038945050319,-0.008674416824258428,-0.0012082115184755958,0.011056798188154356,0.2894546555510735,1.3573858486792834
1.692850327505336,1.9599806555291839,6.445095743238474,-0.008674416824258428,-0.0012082115184755958,0.011056798188154356,0.2966958602264123,1.3509559988570579
1.6841759106810774,1.9587724440107084,6.456152541426628,-0.008674416824258428,-0.0012082115184755958,0.011056798188154356,0.2998831787110886,1.3605802062184789
1.675501493856819,1.9575642324922329,6.467209339614783,-0.008674416824258428,-0.0012082115184755958,0.011056798188154356,0.30336512389789655,1.3916325796309557
1.6668270770325604,1.9563560209737574,6.478266137802938,-0.008674416824258428,-0.0012082115184755958,0.011056798188154356,0.30622968204410644,1.3784038894279067
1.6581526602083019,1.9551478094552819,6.489322935991092,-0.008674416824258428,-0.0012082115184755958,0.011056798188154356,0.3078886365917505,1.3776084989074608
1.6494782433840434,1.9539395979368064,6.500379734179247,-0.008674416824258428,-0.0012082115184755958,0.011056798188154356,0.3081989531189437,1.3740635404622141
1.6408038265597849,1.9527313864183309,6.5114365323674015,-0.008674416824258428,-0.0012082115184755958,0.011056798188154356,0.3137567895217909,1.3663867004336763
1.6321294097355263,1.9515231748998554,6.522493330555556,-0.008674416824258428,-0.0012082115184755958,0.011056798188154356,0.3076401419680193,1.3554611427289727
1.6234549929112678,1.9503149633813799,6.533550128743711,-0.008674416824258428,-0.0012082115184755958,0.011056798188154356,0.3082881680045161,1.3413352472439946
1.6147805760870093,1.9491067518629044,6.544606926931865,-0.008674416824258428,-0.0012082115184755958,0.011056798188154356,0.29855021467818194,1.332215336166631
1.6061061592627508,1.9478985403444289,6.55566372512002,-0.008674416824258428,-0.0012082115184755958,0.011056798188154356,0.29846381277794837,1.3377039303892266
1.5974317424384923,1.9466903288259534,6.566720523308175,-0.008674416824258428,-0.0012082115184755958,0.011056798188154356,0.2970396337819702,1.326764199179192
1.5887573256142338,1.9454821173074779,6.577777321496329,-0.008674416824258428,-0.0012082115184755958,0.011056798188154356,0.3047916696208731,1.32454750822735
1.5800829087899753,1.9442739057890024,6.588834119684484,-0.008674416824258428,-0.0012082115184755958,0.011056798188154356,0.2984074699027442,1.3281742475261553
1.5714084919657167,1.9430656942705269,6.599890917872639,-0.008674416824258428,-0.0012082115184755958,0.011056798188154356,0.290832818584901,1.3315424676839724
1.5627340751414582,1.9418574827520514,6.610947716060793,-0.008674416824258428,-0.0012082115184755958,0.011056798188154356,0.2954587573774435,1.334954471657398
1.5540596583171997,1.940649271233576,6.622004514248948,-0.008674416824258428,-0.0012082115184755958,0.011056798188154356,0.2942517247281376,1.3440258719270133
1.5453852414929412,1.9394410597151004,6.6330613124371025,-0.008674416824258428,-0.0012082115184755958,0.011056798188154356,0.29304737384342067,1.340810031182264
1.5367108246686827,1.938232848196625,6.644118110625257,-0.008674416824258428,-0.0012082115184755958,0.011056798188154356,0.29217372969428684,1.3505846730362188
1.5280364078444242,1.9370246366781494,6.655174908813412,-0.008674416824258428,-0.0012082115184755958,0.011056798188154356,0.278563132784986,1.3545717293153792
1.5193619910201657,1.935816425159674,6.666231707001566,-0.008674416824258428,-0.0012082115184755958,0.011056798188154356,0.2733394374025197,1.3668189655377891
1.5106875741959072,1.9346082136411984,6.677288505189721,-0.008674416824258428,-0.0012082115184755958,0.011056798188154356,0.28029591887013244,1.3601056373323068
1.5020131573716486,1.933400002122723,6.688345303377876,-0.008674416824258428,-0.0012082115184755958,0.011056798188154356,0.2726824701731196,1.36951810028515
1.4933387405473901,1.9321917906042474,6.69940210156603,-0.008674416824258428,-0.0012082115184755958,0.011056798188154356,0.2651769217420758,1.366334067850093
1.4846643237231316,1.930983579085772,6.710458899754185,-0.008674416824258428,-0.0012082115184755958,0.011056798188154356,0.2656469218309077,1.3493739531811058
1.475989906898873,1.9297753675672964,6.72151569794234,-0.008674416824258428,-0.0012082115184755958,0.011056798188154356,0.25975022863182584,1.3427631061517966
1.4673154900746146,1.928567156048821,6.732572496130494,-0.008674416824258428,-0.0012082115184755958,0.011056798188154356,0.25806861208069337,1.3443279447375776
1.458641073250356,1.9273589445303454,6.743629294318649,-0.008674416824258428,-0.0012082115184755958,0.011056798188154356,0.26006958937239394,1.3349622486624206
1.4499666564260976,1.92615073301187,6.7546860925068035,-0.008674416824258428,-0.0012082115184755958,0.011056798188154356,0.2595389737018782,1.3460543984372437
1.441292239601839,1.9249425214933944,6.765742890694958,-0.008674416824258428,-0.0012082115184755958,0.011056798188154356,0.2578612112,1.34509263378642
1.4326178227775805,1.923734309974919,6.776799688883113,-0.008674416824258428,-0.0012082115184755958,0.011056798188154356,0.2605970371275646,1.3298088989068921
1.423943405953322,1.9225260984564434,6.787856487071267,-0.008674416824258428,-0.0012082115184755958,0.011056798188154356,0.25546068226272706,1.3221134935635492
1.4152689891290635,1.921317886937968,6.798913285259422,-0.008674416824258428,-0.0012082115184755958,0.011056798188154356,0.251422020881483,1.3273635279404228
1.406594572304805,1.9201096754194924,6.809970083447577,-0.008674416824258428,-0.0012082115184755958,0.011056798188154356,0.250417435352804,1.3132453687377141
1.3979201554805465,1.918901463901017,6.821026881635731,-0.008674416824258428,-0.0012082115184755958,0.011056798188154356,0.2552661930289694,1.3239923386746966
1.389245738656288,1.9176932523825414,6.832083679823886,-0.008674416824258428,-0.0012082115184755958,0.011056798188154356,0.25999605284837835,1.3347940520657704
1.3805713218320295,1.916485040864066,6.843140478012041,-0.008674416824258428,-0.0012082115184755958,0.011056798188154356,0.26329490151496515,1.332143185516648
1.371896905007771,1.9152768293455904,6.854197276200195,-0.008674416824258428,-0.0012082115184755958,0.011056798188154356,0.26411944421794964,1.33549339599347
1.3632224881835124,1.914068617827115,6.86525407438835,-0.008674416824258428,-0.0012082115184755958,0.011056798188154356,0.26629864377073276,1.3409247767210741
1.354548071359254,1.9128604063086394,6.8763108725765045,-0.008674416824258428,-0.0012082115184755958,0.011056798188154356,0.27014314187702404,1.3442520929740165
1.3458736545349954,1.911652194790164,6.887367670764659,-0.008674416824258428,-0.0012082115184755958,0.011056798188154356,0.2665106018833016,1.3415284227694282
1.337199237710737,1.9104439832716884,6.898424468952814,-0.008674416824258428,-0.0012082115184755958,0.011056798188154356,0.25697423203616154,1.3771516078913995
1.3742530229713,1.8969162668634296,6.947899403343547,0.03705378526056313,-0.013527716408258736,0.04947493439073251,0.25564789201232024,1.3763074610054806
1.411306808231863,1.8833885504551708,6.997374337734279,0.03705378526056313,-0.013527716408258736,0.04947493439073251,0.25601007125536424,1.3890040661396201
1.448360593492426,1.869860834046912,7.046849272125012,0.03705378526056313,-0.013527716408258736,0.04947493439073251,0.2612125083184662,1.4004500663172863
1.485414378752989,1.8563331176386533,7.096324206515745,0.03705378526056313,-0.013527716408258736,0.04947493439073251,0.2760699589135729,1.4146360349340144
1.522468164013552,1.8428054012303945,7.145799140906478,0.03705378526056313,-0.013527716408258736,0.04947493439073251,0.268188165744167,1.4208439689886825
1.559521949274115,1.8292776848221357,7.195274075297211,0.03705378526056313,-0.013527716408258736,0.04947493439073251,0.2651599038634918,1.4096591045379194
1.596575734534678,1.815749968413877,7.244749009687943,0.03705378526056313,-0.013527716408258736,0.04947493439073251,0.26800151415672024,1.4168893128257072
1.633629519795241,1.8022222520056181,7.294223944078676,0.03705378526056313,-0.013527716408258736,0.04947493439073251,0.2685860466982266,1.4218170031034072
1.670683305055804,1.7886945355973594,7.343698878469409,0.03705378526056313,-0.013527716408258736,0.04947493439073251,0.2711845740264584,1.4215574020599093
1.7077370903163671,1.7751668191891006,7.393173812860142,0.03705378526056313,-0.013527716408258736,0.04947493439073251,0.27700180950615255,1.425244141973392
1.7447908755769301,1.7616391027808418,7.442648747250875,0.03705378526056313,-0.013527716408258736,0.04947493439073251,0.2804259548468486,1.4083727239416632
1.7818446608374932,1.748111386372583,7.4921236816416075,0.03705378526056313,-0.013527716408258736,0.04947493439073251,0.27997303731848916,1.4189118902217877
1.8188984460980562,1.7345836699643242,7.54159861603234,0.03705378526056313,-0.013527716408258736,0.04947493439073251,0.28211725439004576,1.4067956843994665
1.8559522313586192,1.7210559535560654,7.591073550423073,0.03705378526056313,-0.013527716408258736,0.04947493439073251,0.2694985886547915,1.4173539441659389
1.8930060166191822,1.7075282371478067,7.640548484813806,0.03705378526056313,-0.013527716408258736,0.04947493439073251,0.263425990181495,1.4260735055511726
1.9300598018797452,1.6940005207395479,7.690023419204539,0.03705378526056313,-0.013527716408258736,0.04947493439073251,0.26341693027537155,1.4178268447701063
1.9671135871403083,1.680472804331289,7.7394983535952715,0.03705378526056313,-0.013527716408258736,0.04947493439073251,0.26819255812026943,1.4312221838753936
2.0041673724008713,1.6669450879230303,7.788973287986004,0.03705378526056313,-0.013527716408258736,0.04947493439073251,0.2623978783055619,1.4245688737612519
2.0412211576614343,1.6534173715147715,7.838448222376737,0.03705378526056313,-0.013527716408258736,0.04947493439073251,0.26379719291104303,1.4257422022601354
2.0782749429219973,1.6398896551065127,7.88792315676747,0.03705378526056313,-0.013527716408258736,0.04947493439073251,0.2564267926001682,1.42577762554422
2.1153287281825603,1.626361938698254,7.937398091158203,0.03705378526056313,-0.013527716408258736,0.04947493439073251,0.2475779309242781,1.4266724315536763
2.1523825134431234,1.6128342222899952,7.9868730255489355,0.03705378526056313,-0.013527716408258736,0.04947493439073251,0.24712366816760586,1.4130242205329584
2.1894362987036864,1.5993065058817364,8.036347959939668,0.03705378526056313,-0.013527716408258736,0.04947493439073251,0.2541914327788238,1.4060485933449545
2.2264900839642494,1.5857787894734776,8.0858228943304,0.03705378526056313,-0.013527716408258736,0.04947493439073251,0.25547495979667767,1.4005423531639223
2.2635438692248124,1.5722510730652188,8.135297828721132,0.03705378526056313,-0.013527716408258736,0.04947493439073251,0.25742780618953276,1.3994807889742757
2.3005976544853755,1.55872335665696,8.184772763111864,0.03705378526056313,-0.013527716408258736,0.04947493439073251,0.2569470982498924,1.387440353009152
2.3376514397459385,1.5451956402487013,8.234247697502596,0.03705378526056313,-0.013527716408258736,0.04947493439073251,0.2636543599615672,1.3689780098658413
2.3747052250065015,1.5316679238404425,8.283722631893328,0.03705378526056313,-0.013527716408258736,0.04947493439073251,0.26173025171470377,1.3741521765676745
2.4117590102670645,1.5181402074321837,8.33319756628406,0.03705378526056313,-0.013527716408258736,0.04947493439073251,0.25593396092778953,1.3767306716700471
2.4488127955276275,1.504612491023925,8.382672500674792,0.03705378526056313,-0.013527716408258736,0.04947493439073251,0.2537517923368088,1.3791618543189423
2.4858665807881906,1.4910847746156661,8.432147435065524,0.03705378526056313,-0.013527716408258736,0.04947493439073251,0.2634433557794749,1.3752632492335997
2.5229203660487536,1.4775570582074073,8.481622369456256,0.03705378526056313,-0.013527716408258736,0.04947493439073251,0.2633326077452523,1.3858837593174071
2.5599741513093166,1.4640293417991486,8.531097303846988,0.03705378526056313,-0.013527716408258736,0.04947493439073251,0.25985181363981547,1.4039209701257627
2.5970279365698796,1.4505016253908898,8.58057223823772,0.03705378526056313,-0.013527716408258736,0.04947493439073251,0.26707160585039147,1.404322506742799
2.6340817218304426,1.436973908982631,8.630047172628451,0.03705378526056313,-0.013527716408258736,0.04947493439073251,0.26315010836631086,1.4168447603106762
2.6711355070910057,1.4234461925743722,8.679522107019183,0.03705378526056313,-0.013527716408258736,0.04947493439073251,0.26040746034369777,1.4058360270714467
2.7081892923515687,1.4099184761661134,8.728997041409915,0.03705378526056313,-0.013527716408258736,0.04947493439073251,0.25279587993673264,1.4123605056527195
2.7452430776121317,1.3963907597578546,8.778471975800647,0.03705378526056313,-0.013527716408258736,0.04947493439073251,0.25904561730269016,1.3935995662184395
2.7822968628726947,1.3828630433495959,8.827946910191379,0.03705378526056313,-0.013527716408258736,0.04947493439073251,0.2605037146941311,1.3924194317750818
2.8193506481332578,1.369335326941337,8.877421844582111,0.03705378526056313,-0.013527716408258736,0.04947493439073251,0.26448099630217703,1.4036145905940207
2.8564044333938208,1.3558076105330783,8.926896778972843,0.03705378526056313,-0.013527716408258736,0.04947493439073251,0.2680945079721188,1.4062626085475562
2.893458218654384,1.3422798941248195,8.976371713363575,0.03705378526056313,-0.013527716408258736,0.04947493439073251,0.2680688457441225,1.4059421858492065
2.930512003914947,1.3287521777165607,9.025846647754307,0.03705378526056313,-0.013527716408258736,0.04947493439073251,0.2678205898736779,1.3838704672881064
2.96756578917551,1.315224461308302,9.075321582145039,0.03705378526056313,-0.013527716408258736,0.04947493439073251,0.2602185975897203,1.3845839474857502
3.004619574436073,1.3016967449000432,9.12479651653577,0.03705378526056313,-0.013527716408258736,0.04947493439073251,0.2604534038417192,1.3844227210209503
3.041673359696636,1.2881690284917844,9.174271450926502,0.03705378526056313,-0.013527716408258736,0.04947493439073251,0.2600225814609614,1.38470771431562
3.078727144957199,1.2746413120835256,9.223746385317234,0.03705378526056313,-0.013527716408258736,0.04947493439073251,0.2663525554977748,1.3932558857216253
3.115780930217762,1.2611135956752668,9.273221319707966,0.03705378526056313,-0.013527716408258736,0.04947493439073251,0.2682102673010987,1.3910669204600454
3.152834715478325,1.247585879267008,9.322696254098698,0.03705378526056313,-0.013527716408258736,0.04947493439073251,0.26544980323969536,1.3953887121341046
3.189888500738888,1.2340581628587493,9.37217118848943,0.03705378526056313,-0.013527716408258736,0.04947493439073251,0.26703549477376615,1.3788998200981193
3.226942285999451,1.2205304464504905,9.421646122880162,0.03705378526056313,-0.013527716408258736,0.04947493439073251,0.27301674816003996,1.368181134317931
3.263996071260014,1.2070027300422317,9.471121057270894,0.03705378526056313,-0.013527716408258736,0.04947493439073251,0.2812672517624595,1.3782733124996849
3.301049856520577,1.193475013633973,9.520595991661626,0.03705378526056313,-0.013527716408258736,0.04947493439073251,0.2796315580182439,1.3963523196924166
3.33810364178114,1.1799472972257141,9.570070926052358,0.03705378526056313,-0.013527716408258736,0.04947493439073251,0.2812086958663891,1.410478143668925
3.375157427041703,1.1664195808174553,9.61954586044309,0.03705378526056313,-0.013527716408258736,0.04947493439073251,0.28081214612127675,1.4024948950556415
3.412211212302266,1.1528918644091966,9.669020794833822,0.03705378526056313,-0.013527716408258736,0.04947493439073251,0.2785132622517197,1.3905647986695542
3.449264997562829,1.1393641480009378,9.718495729224554,0.03705378526056313,-0.013527716408258736,0.04947493439073251,0.2796733210645077,1.393315346871462
3.486318782823392,1.125836431592679,9.767970663615285,0.03705378526056313,-0.013527716408258736,0.04947493439073251,0.28522374411140816,1.387052886402521
3.523372568083955,1.1123087151844202,9.817445598006017,0.03705378526056313,-0.013527716408258736,0.04947493439073251,0.28683454058819197,1.3790067542193885
3.560426353344518,1.0987809987761614,9.86692053239675,0.03705378526056313,-0.013527716408258736,0.04947493439073251,0.2900134739765372,1.381851239862603
3.597480138605081,1.0852532823679026,9.916395466787481,0.03705378526056313,-0.013527716408258736,0.04947493439073251,0.2852292449624329,1.3876914689190016
3.6345339238656442,1.0717255659596439,9.965870401178213,0.03705378526056313,-0.013527716408258736,0.04947493439073251,0.28615475343218516,1.3879248562378583
3.638933999039615,1.080405254054652,9.973356033401437,0.004400075173970766,0.008679688095008185,0.007485632223223119,0.2770946749015867,1.3762135152628971
3.6433340742135853,1.0890849421496602,9.980841665624661,0.004400075173970766,0.008679688095008185,0.007485632223223119,0.27671242112299144,1.380256047803383
3.647734149387556,1.0977646302446684,9.988327297847885,0.004400075173970766,0.008679688095008185,0.007485632223223119,0.28404674331517576,1.384990569801359
3.6521342245615265,1.1064443183396766,9.995812930071109,0.004400075173970766,0.008679688095008185,0.007485632223223119,0.2811272224950813,1.3692998364032671
3.6012428754303607,1.1087337585579158,9.964807046998148,-0.05089134913116562,0.002289440218239204,-0.031005883072960507,0.26719278714211075,1.3730678498170903
3.550351526299195,1.111023198776155,9.933801163925187,-0.05089134913116562,0.002289440218239204,-0.031005883072960507,0.26348724793087647,1.3713953456841508
3.499460177168029,1.1133126389943941,9.902795280852226,-0.05089134913116562,0.002289440218239204,-0.031005883072960507,0.26845336677414544,1.3814578473733934
3.4485688280368634,1.1156020792126333,9.871789397779265,-0.05089134913116562,0.002289440218239204,-0.031005883072960507,0.26702099449375305,1.3845823536602815
3.3976774789056976,1.1178915194308725,9.840783514706304,-0.05089134913116562,0.002289440218239204,-0.031005883072960507,0.2733750020074656,1.3767364387403243
3.346786129774532,1.1201809596491117,9.809777631633343,-0.05089134913116562,0.002289440218239204,-0.031005883072960507,0.2768131737600217,1.3684400744748655
3.295894780643366,1.1224703998673509,9.778771748560382,-0.05089134913116562,0.002289440218239204,-0.031005883072960507,0.28762470233035753,1.3645008927593287
3.2450034315122003,1.12475984008559,9.747765865487422,-0.05089134913116562,0.002289440218239204,-0.031005883072960507,0.28163717611369493,1.367427519737092
3.1941120823810345,1.1270492803038292,9.71675998241446,-0.05089134913116562,0.002289440218239204,-0.031005883072960507,0.28526141290031104,1.3717882814927258
3.1432207332498687,1.1293387205220684,9.6857540993415,-0.05089134913116562,0.002289440218239204,-0.031005883072960507,0.28521935947022503,1.3861851574489867
3.092329384118703,1.1316281607403076,9.654748216268539,-0.05089134913116562,0.002289440218239204,-0.031005883072960507,0.28869205097833556,1.3768575276025041
3.041438034987537,1.1339176009585468,9.623742333195578,-0.05089134913116562,0.002289440218239204,-0.031005883072960507,0.292551817609715,1.3897723935922952
2.9905466858563714,1.136207041176786,9.592736450122617,-0.05089134913116562,0.002289440218239204,-0.031005883072960507,0.2927985162547932,1.4056625348846883
2.9396553367252056,1.1384964813950251,9.561730567049656,-0.05089134913116562,0.002289440218239204,-0.031005883072960507,0.2878719297422606,1.413172911217312
2.88876398759404,1.1407859216132643,9.530724683976695,-0.05089134913116562,0.002289440218239204,-0.031005883072960507,0.2811717084300352,1.4008103450039089
2.837872638462874,1.1430753618315035,9.499718800903734,-0.05089134913116562,0.002289440218239204,-0.031005883072960507,0.2826701635379726,1.3797289715102157
2.7869812893317083,1.1453648020497427,9.468712917830773,-0.05089134913116562,0.002289440218239204,-0.031005883072960507,0.2808795112091478,1.363999813075492
2.7360899402005425,1.1476542422679819,9.437707034757812,-0.05089134913116562,0.002289440218239204,-0.031005883072960507,0.28376470197890324,1.3527652622204178
2.6851985910693768,1.149943682486221,9.406701151684851,-0.05089134913116562,0.002289440218239204,-0.031005883072960507,0.2848025061295916,1.3541788921132798
2.634307241938211,1.1522331227044602,9.37569526861189,-0.05089134913116562,0.002289440218239204,-0.031005883072960507,0.2854492868045049,1.3662491037700855
2.583415892807045,1.1545225629226994,9.34468938553893,-0.05089134913116562,0.002289440218239204,-0.031005883072960507,0.28173527721176644,1.3771382363636018
2.5325245436758794,1.1568120031409386,9.313683502465969,-0.05089134913116562,0.002289440218239204,-0.031005883072960507,0.28115091639093426,1.382721712719296
2.4816331945447136,1.1591014433591778,9.282677619393008,-0.05089134913116562,0.002289440218239204,-0.031005883072960507,0.2839647088291759,1.3908422062567964
2.430741845413548,1.161390883577417,9.251671736320047,-0.05089134913116562,0.002289440218239204,-0.031005883072960507,0.29316246218791553,1.3953348790745228
2.379850496282382,1.1636803237956561,9.220665853247086,-0.05089134913116562,0.002289440218239204,-0.031005883072960507,0.28844554134630374,1.3892639161621452
2.3289591471512163,1.1659697640138953,9.189659970174125,-0.05089134913116562,0.002289440218239204,-0.031005883072960507,0.2876205107692552,1.402364354200047
2.2780677980200505,1.1682592042321345,9.158654087101164,-0.05089134913116562,0.002289440218239204,-0.031005883072960507,0.2877336422961946,1.3832095638771642
2.2271764488888848,1.1705486444503737,9.127648204028203,-0.05089134913116562,0.002289440218239204,-0.031005883072960507,0.2786221013153214,1.3737101384139925
2.176285099757719,1.1728380846686128,9.096642320955242,-0.05089134913116562,0.002289440218239204,-0.031005883072960507,0.2747082830094171,1.3807112451780859
2.1253937506265532,1.175127524886852,9.065636437882281,-0.05089134913116562,0.002289440218239204,-0.031005883072960507,0.2669215590985494,1.3899944755804405
2.0745024014953874,1.1774169651050912,9.03463055480932,-0.05089134913116562,0.002289440218239204,-0.031005883072960507,0.2576846544830815,1.380129981514516
2.0236110523642217,1.1797064053233304,9.00362467173636,-0.05089134913116562,0.002289440218239204,-0.031005883072960507,0.25299996860993956,1.3917508549972057
1.9727197032330561,1.1819958455415696,8.972618788663398,-0.05089134913116562,0.002289440218239204,-0.031005883072960507,0.25351054727061123,1.398976557007111
1.9218283541018906,1.1842852857598087,8.941612905590437,-0.05089134913116562,0.002289440218239204,-0.031005883072960507,0.2575495301277999,1.3914405877265337
1.870937004970725,1.186574725978048,8.910607022517476,-0.05089134913116562,0.002289440218239204,-0.031005883072960507,0.247145205156705,1.412332244309437
1.8200456558395595,1.188864166196287,8.879601139444516,-0.05089134913116562,0.002289440218239204,-0.031005883072960507,0.23682605956819516,1.4016899060101804
1.769154306708394,1.1911536064145263,8.848595256371555,-0.05089134913116562,0.002289440218239204,-0.031005883072960507,0.2297906560920241,1.3935175923765553
1.7182629575772284,1.1934430466327655,8.817589373298594,-0.05089134913116562,0.002289440218239204,-0.031005883072960507,0.2235917034426289,1.3760244787482925
1.6673716084460628,1.1957324868510046,8.786583490225633,-0.05089134913116562,0.002289440218239204,-0.031005883072960507,0.23034002384657665,1.3722835687829456
1.6164802593148972,1.1980219270692438,8.755577607152672,-0.05089134913116562,0.002289440218239204,-0.031005883072960507,0.22719379737501444,1.366679960467625
1.5655889101837317,1.200311367287483,8.724571724079711,-0.05089134913116562,0.002289440218239204,-0.031005883072960507,0.22186705766971396,1.3472003016444836
1.5146975610525661,1.2026008075057222,8.69356584100675,-0.05089134913116562,0.002289440218239204,-0.031005883072960507,0.2256384054631054,1.3425347756265624
1.4638062119214006,1.2048902477239614,8.662559957933789,-0.05089134913116562,0.002289440218239204,-0.031005883072960507,0.21932027138144114,1.3322935813065337
1.412914862790235,1.2071796879422005,8.631554074860828,-0.05089134913116562,0.002289440218239204,-0.031005883072960507,0.2132906346043461,1.3375836635947076
1.3620235136590695,1.2094691281604397,8.600548191787867,-0.05089134913116562,0.002289440218239204,-0.031005883072960507,0.2130697459588592,1.316499776352372
1.311132164527904,1.211758568378679,8.569542308714906,-0.05089134913116562,0.002289440218239204,-0.031005883072960507,0.21178254665966406,1.3044919679865983
1.2602408153967384,1.214048008596918,8.538536425641945,-0.05089134913116562,0.002289440218239204,-0.031005883072960507,0.21310594399110233,1.2988199869378139
1.2093494662655728,1.2163374488151573,8.507530542568984,-0.05089134913116562,0.002289440218239204,-0.031005883072960507,0.2091278569424435,1.306586675688907
1.1584581171344073,1.2186268890333964,8.476524659496024,-0.05089134913116562,0.002289440218239204,-0.031005883072960507,0.21116989137061173,1.3055883389330079
1.1075667680032417,1.2209163292516356,8.445518776423063,-0.05089134913116562,0.002289440218239204,-0.031005883072960507,0.21803872992096648,1.3071600003600492
1.0566754188720762,1.2232057694698748,8.414512893350102,-0.05089134913116562,0.002289440218239204,-0.031005883072960507,0.20421440624603182,1.2873690705077776
1.0057840697409106,1.225495209688114,8.38350701027714,-0.05089134913116562,0.002289440218239204,-0.031005883072960507,0.20613568583000408,1.2870708223130085
0.954892720609745,1.2277846499063532,8.35250112720418,-0.05089134913116562,0.002289440218239204,-0.031005883072960507,0.20128088943728292,1.275737325945503
0.9040013714785793,1.2300740901245923,8.321495244131219,-0.05089134913116562,0.002289440218239204,-0.031005883072960507,0.19873665057421563,1.2871939087821225
0.8531100223474136,1.2323635303428315,8.290489361058258,-0.05089134913116562,0.002289440218239204,-0.031005883072960507,0.19854417601447988,1.288061647676821
0.802218673216248,1.2346529705610707,8.259483477985297,-0.05089134913116562,0.002289440218239204,-0.031005883072960507,0.19633515648847089,1.293930726605134
0.7513273240850823,1.2369424107793099,8.228477594912336,-0.05089134913116562,0.002289440218239204,-0.031005883072960507,0.19247002572964084,1.2793305810931592
0.7004359749539166,1.239231850997549,8.197471711839375,-0.05089134913116562,0.002289440218239204,-0.031005883072960507,0.19444965542302461,1.2831869565988663
0.649544625822751,1.2415212912157882,8.166465828766414,-0.05089134913116562,0.002289440218239204,-0.031005883072960507,0.19361848574122084,1.2845330865355813
0.5986532766915853,1.2438107314340274,8.135459945693453,-0.05089134913116562,0.002289440218239204,-0.031005883072960507,0.2014167528089585,1.2937461140542117
0.5477619275604196,1.2461001716522666,8.104454062620492,-0.05089134913116562,0.002289440218239204,-0.031005883072960507,0.20656297153970676,1.283358657426011
0.49687057842925403,1.2483896118705058,8.073448179547531,-0.05089134913116562,0.002289440218239204,-0.031005883072960507,0.2112148749174617,1.2621000371495967
0.4459792292980884,1.250679052088745,8.04244229647457,-0.05089134913116562,0.002289440218239204,-0.031005883072960507,0.2104026759645215,1.2565330404701518
0.3950878801669228,1.2529684923069841,8.01143641340161,-0.05089134913116562,0.002289440218239204,-0.031005883072960507,0.20683465993338201,1.2604181414072202
0.3441965310357572,1.2552579325252233,7.980430530328649,-0.05089134913116562,0.002289440218239204,-0.031005883072960507,0.2123888915890686,1.2559123485121013
0.2933051819045916,1.2575473727434625,7.949424647255688,-0.05089134913116562,0.002289440218239204,-0.031005883072960507,0.21247743731988356,1.2567299135084757
0.24241383277342599,1.2598368129617017,7.918418764182727,-0.05089134913116562,0.002289440218239204,-0.031005883072960507,0.21685397176293764,1.2495646027919514
0.19152248364226038,1.2621262531799409,7.887412881109766,-0.05089134913116562,0.002289440218239204,-0.031005883072960507,0.20494272219212178,1.2452238916153973
0.14063113451109477,1.26441569339818,7.856406998036805,-0.05089134913116562,0.002289440218239204,-0.031005883072960507,0.20049130337585427,1.2406839669190002
0.08973978537992915,1.2667051336164192,7.825401114963844,-0.05089134913116562,0.002289440218239204,-0.031005883072960507,0.19790302489106917,1.2516856390704436
0.038848436248763524,1.2689945738346584,7.794395231890883,-0.05089134913116562,0.002289440218239204,-0.031005883072960507,0.19872528561470715,1.2404895698060714
0.012774477075474515,1.267562303446992,7.830657779845445,-0.02607395917328901,-0.0014322703876663428,0.03626254795456192,0.1917867402237131,1.239509451030163
-0.013299482097814494,1.2661300330593257,7.866920327800006,-0.02607395917328901,-0.0014322703876663428,0.03626254795456192,0.19367816332975987,1.2465045738400138
-0.0393734412711035,1.2646977626716593,7.903182875754568,-0.02607395917328901,-0.0014322703876663428,0.03626254795456192,0.17807464857556213,1.2499105421790204
-0.06544740044439251,1.263265492283993,7.939445423709129,-0.02607395917328901,-0.0014322703876663428,0.03626254795456192,0.17717571023393125,1.2660380063700025
-0.09152135961768151,1.2618332218963266,7.975707971663691,-0.02607395917328901,-0.0014322703876663428,0.03626254795456192,0.16859067455166094,1.268112545761966
-0.11759531879097052,1.2604009515086603,8.011970519618252,-0.02607395917328901,-0.0014322703876663428,0.03626254795456192,0.16977666586095416,1.2592267398147161
-0.14366927796425952,1.258968681120994,8.048233067572815,-0.02607395917328901,-0.0014322703876663428,0.03626254795456192,0.16720736534475178,1.2678057922558985
-0.16974323713754852,1.2575364107333276,8.084495615527377,-0.02607395917328901,-0.0014322703876663428,0.03626254795456192,0.16306746604465489,1.2720245162207922
-0.19581719631083752,1.2561041403456612,8.12075816348194,-0.02607395917328901,-0.0014322703876663428,0.03626254795456192,0.1560798764923251,1.2534042153995342
-0.22189115548412652,1.2546718699579948,8.157020711436502,-0.02607395917328901,-0.0014322703876663428,0.03626254795456192,0.15089830923060255,1.2453889431126253
-0.24796511465741553,1.2532395995703285,8.193283259391064,-0.02607395917328901,-0.0014322703876663428,0.03626254795456192,0.15672959525460434,1.2563562293969395
-0.2740390738307045,1.2518073291826621,8.229545807345627,-0.02607395917328901,-0.0014322703876663428,0.03626254795456192,0.16134161971047659,1.2401880148608624
-0.30011303300399356,1.2503750587949958,8.265808355300189,-0.02607395917328901,-0.0014322703876663428,0.03626254795456192,0.15776589817699743,1.242192830957806
-0.3261869921772826,1.2489427884073294,8.302070903254751,-0.02607395917328901,-0.0014322703876663428,0.03626254795456192,0.15685251305268794,1.2594142197490887
-0.3522609513505716,1.247510518019663,8.338333451209314,-0.02607395917328901,-0.0014322703876663428,0.03626254795456192,0.15266993449664382,1.2413603836901546
-0.37833491052386065,1.2460782476319967,8.374595999163876,-0.02607395917328901,-0.0014322703876663428,0.03626254795456192,0.15271574507727734,1.2353325333260419
-0.4044088696971497,1.2446459772443303,8.410858547118439,-0.02607395917328901,-0.0014322703876663428,0.03626254795456192,0.15260611704664945,1.2371990658858953
-0.4304828288704387,1.243213706856664,8.447121095073001,-0.02607395917328901,-0.0014322703876663428,0.03626254795456192,0.15102441880989945,1.2261560475789426
-0.45655678804372773,1.2417814364689976,8.483383643027564,-0.02607395917328901,-0.0014322703876663428,0.03626254795456192,0.15429914926521113,1.23939538244084
-0.48263074721701676,1.2403491660813313,8.519646190982126,-0.02607395917328901,-0.0014322703876663428,0.03626254795456192,0.14737648908482656,1.232291906226657
-0.5087047063903057,1.238916895693665,8.555908738936688,-0.02607395917328901,-0.0014322703876663428,0.03626254795456192,0.14624132546475815,1.2073094310735384
-0.5347786655635948,1.2374846253059986,8.59217128689125,-0.02607395917328901,-0.0014322703876663428,0.03626254795456192,0.14417598965661613,1.2220546241457366
-0.5608526247368838,1.2360523549183322,8.628433834845813,-0.02607395917328901,-0.0014322703876663428,0.03626254795456192,0.14228799873356945,1.212860700942192
-0.5869265839101728,1.2346200845306659,8.664696382800376,-0.02607395917328901,-0.0014322703876663428,0.03626254795456192,0.14173818621321863,1.2260005314159512
-0.6130005430834619,1.2331878141429995,8.700958930754938,-0.02607395917328901,-0.0014322703876663428,0.03626254795456192,0.14162008733782958,1.2238837034012011
-0.6390745022567509,1.2317555437553331,8.7372214787095,-0.02607395917328901,-0.0014322703876663428,0.03626254795456192,0.13826832180314247,1.211617276456786
-0.6651484614300399,1.2303232733676668,8.773484026664063,-0.02607395917328901,-0.0014322703876663428,0.03626254795456192,0.13512039846378643,1.2118218191166563
-0.691222420603329,1.2288910029800004,8.809746574618625,-0.02607395917328901,-0.0014322703876663428,0.03626254795456192,0.13648865376861105,1.212967535439351
-0.717296379776618,1.227458732592334,8.846009122573188,-0.02607395917328901,-0.0014322703876663428,0.03626254795456192,0.13885560397967908,1.2222812111063681
-0.743370338949907,1.2260264622046677,8.88227167052775,-0.02607395917328901,-0.0014322703876663428,0.03626254795456192,0.13696697711537587,1.2270637280381973
-0.769444298123196,1.2245941918170014,8.918534218482312,-0.02607395917328901,-0.0014322703876663428,0.03626254795456192,0.14468426678300392,1.2345343257165184
-0.7955182572964851,1.223161921429335,8.954796766436875,-0.02607395917328901,-0.0014322703876663428,0.03626254795456192,0.1444610071657409,1.241862846398852
-0.8215922164697741,1.2217296510416686,8.991059314391437,-0.02607395917328901,-0.0014322703876663428,0.03626254795456192,0.13808129805477404,1.2348018672440078
-0.8476661756430631,1.2202973806540023,9.027321862346,-0.02607395917328901,-0.0014322703876663428,0.03626254795456192,0.13101811038285313,1.2291062645090638
-0.8737401348163522,1.218865110266336,9.063584410300562,-0.02607395917328901,-0.0014322703876663428,0.03626254795456192,0.12955236679863563,1.2317812838693691
-0.8998140939896412,1.2174328398786696,9.099846958255124,-0.02607395917328901,-0.0014322703876663428,0.03626254795456192,0.13419657973556534,1.2339586533933407
-0.9258880531629302,1.2160005694910032,9.136109506209687,-0.02607395917328901,-0.0014322703876663428,0.03626254795456192,0.13804132414708345,1.2316146224643008
-0.9519620123362192,1.2145682991033369,9.17237205416425,-0.02607395917328901,-0.0014322703876663428,0.03626254795456192,0.13554426150222051,1.2348597813378348
-0.9780359715095083,1.2131360287156705,9.208634602118812,-0.02607395917328901,-0.0014322703876663428,0.03626254795456192,0.13485556810997001,1.2342992998237297
-1.0041099306827972,1.2117037583280041,9.244897150073374,-0.02607395917328901,-0.0014322703876663428,0.03626254795456192,0.13791873501615176,1.214991367246077
-1.0301838898560862,1.2102714879403378,9.281159698027936,-0.02607395917328901,-0.0014322703876663428,0.03626254795456192,0.13377963219589148,1.2155398809197175
-1.0562578490293753,1.2088392175526714,9.317422245982499,-0.02607395917328901,-0.0014322703876663428,0.03626254795456192,0.13254706021955112,1.2040155031554132
-1.0823318082026643,1.207406947165005,9.353684793937061,-0.02607395917328901,-0.0014322703876663428,0.03626254795456192,0.13764044680855794,1.2103867024920711
-1.1084057673759533,1.2059746767773387,9.389947341891624,-0.02607395917328901,-0.0014322703876663428,0.03626254795456192,0.13571267859783326,1.2004145945179971
-1.1344797265492423,1.2045424063896724,9.426209889846186,-0.02607395917328901,-0.0014322703876663428,0.03626254795456192,0.12822618835416366,1.1869487810889705
-1.1605536857225314,1.203110136002006,9.462472437800749,-0.02607395917328901,-0.0014322703876663428,0.03626254795456192,0.12209621923452335,1.1717331977345862
-1.1866276448958204,1.2016778656143396,9.498734985755311,-0.02607395917328901,-0.0014322703876663428,0.03626254795456192,0.1327868365248287,1.1849437419838138
-1.2127016040691094,1.2002455952266733,9.534997533709873,-0.02607395917328901,-0.0014322703876663428,0.03626254795456192,0.12900158328435551,1.1842123295520557
-1.2387755632423985,1.198813324839007,9.571260081664436,-0.02607395917328901,-0.0014322703876663428,0.03626254795456192,0.1277962317377186,1.1757968615429768
-1.2648495224156875,1.1973810544513406,9.607522629618998,-0.02607395917328901,-0.0014322703876663428,0.03626254795456192,0.11682052873387318,1.1741478129593996
-1.2909234815889765,1.1959487840636742,9.64378517757356,-0.02607395917328901,-0.0014322703876663428,0.03626254795456192,0.11604523757704749,1.1503137839889583
-1.3169974407622655,1.1945165136760079,9.680047725528123,-0.02607395917328901,-0.0014322703876663428,0.03626254795456192,0.11066769261833401,1.136232201243835
-1.3430713999355546,1.1930842432883415,9.716310273482685,-0.02607395917328901,-0.0014322703876663428,0.03626254795456192,0.10217290502242937,1.135508386160887
-1.3691453591088436,1.1916519729006751,9.752572821437248,-0.02607395917328901,-0.0014322703876663428,0.03626254795456192,0.10458458090220396,1.1454606953021853
-1.3952193182821326,1.1902197025130088,9.78883536939181,-0.02607395917328901,-0.0014322703876663428,0.03626254795456192,0.10122401005608779,1.140811622785385
-1.4212932774554217,1.1887874321253424,9.825097917346373,-0.02607395917328901,-0.0014322703876663428,0.03626254795456192,0.09191279275491471,1.1241415108684287
-1.4473672366287107,1.187355161737676,9.861360465300935,-0.02607395917328901,-0.0014322703876663428,0.03626254795456192,0.0930215150704562,1.1088195408519683
-1.4734411958019997,1.1859228913500097,9.897623013255497,-0.02607395917328901,-0.0014322703876663428,0.03626254795456192,0.09423329322610773,1.1120351764869105
-1.4995151549752888,1.1844906209623434,9.93388556121006,-0.02607395917328901,-0.0014322703876663428,0.03626254795456192,0.08663869498356461,1.1107242749232293
-1.5255891141485778,1.183058350574677,9.970148109164622,-0.02607395917328901,-0.0014322703876663428,0.03626254795456192,0.07806676410561322,1.1308037641667859
-1.4781232240931392,1.172067201047957,9.961370762014463,0.047465890055438484,-0.010991149526720178,-0.00877734715016028,0.07937097927631735,1.129610562700588
-1.4306573340377007,1.1610760515212368,9.952593414864303,0.047465890055438484,-0.010991149526720178,-0.00877734715016028,0.07268473497737374,1.12248571036982
-1.3831914439822621,1.1500849019945167,9.943816067714144,0.047465890055438484,-0.010991149526720178,-0.00877734715016028,0.07268473497737374,1.126928688137976
-1.3357255539268236,1.1390937524677966,9.935038720563984,0.047465890055438484,-0.010991149526720178,-0.00877734715016028,0.07268473497737374,1.128602518168426
-1.288259663871385,1.1281026029410766,9.926261373413825,0.047465890055438484,-0.010991149526720178,-0.00877734715016028,0.06269329106614563,1.1136296620629336
-1.2407937738159465,1.1171114534143565,9.917484026263665,0.047465890055438484,-0.010991149526720178,-0.00877734715016028,0.06269329106614563,1.1143864964132943
-1.193327883760508,1.1061203038876364,9.908706679113505,0.047465890055438484,-0.010991149526720178,-0.00877734715016028,0.06615752414550381,1.128809145242089
-1.1458619937050694,1.0951291543609163,9.899929331963346,0.047465890055438484,-0.010991149526720178,-0.00877734715016028,0.05662141634626413,1.1298270664012195
-1.0983961036496308,1.0841380048341962,9.891151984813186,0.047465890055438484,-0.010991149526720178,-0.00877734715016028,0.07009104981830476,1.1282772992960746
-1.0509302135941923,1.073146855307476,9.882374637663027,0.047465890055438484,-0.010991149526720178,-0.00877734715016028,0.07009104981830476,1.1060133247468227
-1.0034643235387537,1.062155705780756,9.873597290512867,0.047465890055438484,-0.010991149526720178,-0.00877734715016028,0.07166565059618268,1.1340510123655856
-0.9559984334833153,1.051164556254036,9.864819943362708,0.047465890055438484,-0.010991149526720178,-0.00877734715016028,0.07166565059618268,1.1233324783239071
-0.9085325434278768,1.0401734067273158,9.856042596212548,0.047465890055438484,-0.010991149526720178,-0.00877734715016028,0.07339149538587725,1.1439574759861126
-0.8610666533724384,1.0291822572005958,9.847265249062389,0.047465890055438484,-0.010991149526720178,-0.00877734715016028,0.08943210512217224,1.1365142214805068
-0.8136007633169999,1.0181911076738757,9.838487901912229,0.047465890055438484,-0.010991149526720178,-0.00877734715016028,0.08943210512217224,1.1234976398061425
-0.7661348732615615,1.0071999581471556,9.82971055476207,0.047465890055438484,-0.010991149526720178,-0.00877734715016028,0.08943210512217224,1.1243557559845205
-0.718668983206123,0.9962088086204354,9.82093320761191,0.047465890055438484,-0.010991149526720178,-0.00877734715016028,0.08943210512217224,1.1350839465431524
-0.6712030931506846,0.9852176590937152,9.81215586046175,0.047465890055438484,-0.010991149526720178,-0.00877734715016028,0.08943210512217224,1.1518736975467876
-0.6237372030952462,0.974226509566995,9.803378513311591,0.047465890055438484,-0.010991149526720178,-0.00877734715016028,0.08943210512217224,1.160182535699505
-0.5762713130398077,0.9632353600402748,9.794601166161431,0.047465890055438484,-0.010991149526720178,-0.00877734715016028,0.08943210512217224,1.1679031677315175
-0.5288054229843693,0.9522442105135546,9.785823819011272,0.047465890055438484,-0.010991149526720178,-0.00877734715016028,0.08943210512217224,1.1598974865665053
-0.4813395329289308,0.9412530609868344,9.777046471861112,0.047465890055438484,-0.010991149526720178,-0.00877734715016028,0.08943210512217224,1.1578392747271768
-0.4338736428734923,0.9302619114601142,9.768269124710953,0.047465890055438484,-0.010991149526720178,-0.00877734715016028,0.08943210512217224,1.1639120506058895
-0.3864077528180538,0.919270761933394,9.759491777560793,0.047465890055438484,-0.010991149526720178,-0.00877734715016028,0.08943210512217224,1.1564944944030076
-0.3389418627626153,0.9082796124066738,9.750714430410634,0.047465890055438484,-0.010991149526720178,-0.00877734715016028,0.09799675364315927,1.1589866555770174
-0.2914759727071768,0.8972884628799536,9.741937083260474,0.047465890055438484,-0.010991149526720178,-0.00877734715016028,0.08971084784112093,1.1664960412885754
-0.2440100826517383,0.8862973133532334,9.733159736110315,0.047465890055438484,-0.010991149526720178,-0.00877734715016028,0.0803187861566316,1.1688655227982323
-0.1965441925962998,0.8753061638265132,9.724382388960155,0.047465890055438484,-0.010991149526720178,-0.00877734715016028,0.07963871646643941,1.1774810077857567
-0.1490783025408613,0.864315014299793,9.715605041809996,0.047465890055438484,-0.010991149526720178,-0.00877734715016028,0.07817781147386897,1.1899397286329887
-0.10161241248542281,0.8533238647730728,9.706827694659836,0.047465890055438484,-0.010991149526720178,-0.00877734715016028,0.07817781147386897,1.1867940544990367
-0.05414652242998433,0.8423327152463526,9.698050347509676,0.047465890055438484,-0.010991149526720178,-0.00877734715016028,0.07817781147386897,1.1858410258138226
-0.006680632374545845,0.8313415657196324,9.689273000359517,0.047465890055438484,-0.010991149526720178,-0.00877734715016028,0.07817781147386897,1.181880821947902
0.04078525768089264,0.8203504161929122,9.680495653209357,0.047465890055438484,-0.010991149526720178,-0.00877734715016028,0.07817781147386897,1.198695600450095
0.08825114773633112,0.809359266666192,9.671718306059198,0.047465890055438484,-0.010991149526720178,-0.00877734715016028,0.07817781147386897,1.205986280499842
0.1357170377917696,0.7983681171394718,9.662940958909038,0.047465890055438484,-0.010991149526720178,-0.00877734715016028,0.07817781147386897,1.2135171118216943
0.18318292784720808,0.7873769676127516,9.654163611758879,0.047465890055438484,-0.010991149526720178,-0.00877734715016028,0.07817781147386897,1.2360319539407354
0.23064881790264657,0.7763858180860314,9.64538626460872,0.047465890055438484,-0.010991149526720178,-0.00877734715016028,0.07817781147386897,1.2455159432320382
0.2781147079580851,0.7653946685593112,9.63660891745856,0.047465890055438484,-0.010991149526720178,-0.00877734715016028,0.0754817834173247,1.2538205339058983
0.32558059801352357,0.754403519032591,9.6278315703084,0.047465890055438484,-0.010991149526720178,-0.00877734715016028,0.06985099215787266,1.2532196879735027
0.37304648806896207,0.7434123695058708,9.61905422315824,0.047465890055438484,-0.010991149526720178,-0.00877734715016028,0.06993823391972817,1.243351131141905
0.42051237812440057,0.7324212199791506,9.610276876008081,0.047465890055438484,-0.010991149526720178,-0.00877734715016028,0.06993823391972817,1.24195053957281
0.46797826817983906,0.7214300704524303,9.601499528857921,0.047465890055438484,-0.010991149526720178,-0.00877734715016028,0.07782296594807928,1.241001091662268
0.5154441582352776,0.7104389209257101,9.592722181707762,0.047465890055438484,-0.010991149526720178,-0.00877734715016028,0.07782296594807928,1.2443129815304406
0.562910048290716,0.69944777139899,9.583944834557602,0.047465890055438484,-0.010991149526720178,-0.00877734715016028,0.07395929602584954,1.2488807878488715
0.6103759383461544,0.6884566218722697,9.575167487407443,0.047465890055438484,-0.010991149526720178,-0.00877734715016028,0.07181253104576492,1.2511375792629684
0.6578418284015929,0.6774654723455495,9.566390140257283,0.047465890055438484,-0.010991149526720178,-0.00877734715016028,0.07181253104576492,1.2477287586830808
0.7053077184570313,0.6664743228188293,9.557612793107124,0.047465890055438484,-0.010991149526720178,-0.00877734715016028,0.07181253104576492,1.2486867142155313
0.7527736085124698,0.6554831732921091,9.548835445956964,0.047465890055438484,-0.010991149526720178,-0.00877734715016028,0.06731937348823795,1.2370181470369324
0.8002394985679082,0.6444920237653889,9.540058098806805,0.047465890055438484,-0.010991149526720178,-0.00877734715016028,0.06731937348823795,1.2421401528089098
0.8477053886233467,0.6335008742386687,9.531280751656645,0.047465890055438484,-0.010991149526720178,-0.00877734715016028,0.06731937348823795,1.243710980918488
0.8951712786787851,0.6225097247119485,9.522503404506486,0.047465890055438484,-0.010991149526720178,-0.00877734715016028,0.06341810843586695,1.2272817034697663
0.9426371687342235,0.6115185751852283,9.513726057356326,0.047465890055438484,-0.010991149526720178,-0.00877734715016028,0.0661156129399092,1.2373564897784202
0.990103058789662,0.6005274256585081,9.504948710206166,0.047465890055438484,-0.010991149526720178,-0.00877734715016028,0.0661156129399092,1.237729218366478
1.0375689488451005,0.5895362761317879,9.496171363056007,0.047465890055438484,-0.010991149526720178,-0.00877734715016028,0.06529160544218193,1.2300252297662366
1.085034838900539,0.5785451266050677,9.487394015905847,0.047465890055438484,-0.010991149526720178,-0.00877734715016028,0.06721085746278309,1.2142798243551267
1.1325007289559776,0.5675539770783475,9.478616668755688,0.047465890055438484,-0.010991149526720178,-0.00877734715016028,0.06721085746278309,1.2300716399118312
1.1799666190114162,0.5565628275516273,9.469839321605528,0.047465890055438484,-0.010991149526720178,-0.00877734715016028,0.06721085746278309,1.2207585135651533
1.2274325090668547,0.5455716780249071,9.461061974455369,0.047465890055438484,-0.010991149526720178,-0.00877734715016028,0.06721085746278309,1.2190051461528897
1.2748983991222933,0.5345805284981869,9.45228462730521,0.047465890055438484,-0.010991149526720178,-0.00877734715016028,0.06056213948509446,1.2139101886117358
1.3223642891777319,0.5235893789714667,9.44350728015505,0.047465890055438484,-0.010991149526720178,-0.00877734715016028,0.06285419049502422,1.2102568090185906
1.3698301792331704,0.5125982294447465,9.43472993300489,0.047465890055438484,-0.010991149526720178,-0.00877734715016028,0.08126788347404268,1.2091590794481055
1.417296069288609,0.5016070799180263,9.42595258585473,0.047465890055438484,-0.010991149526720178,-0.00877734715016028,0.07132218629592947,1.2057477750087449
1.4647619593440475,0.49061593039130613,9.417175238704571,0.047465890055438484,-0.010991149526720178,-0.00877734715016028,0.07132218629592947,1.2170967286374772
1.4272799114840895,0.4752671954443589,9.488929374105485,-0.037482047859958054,-0.015348734946947242,0.07175413540091428,0.07132218629592947,1.203657951410346
1.3897978636241315,0.4599184604974117,9.560683509506399,-0.037482047859958054,-0.015348734946947242,0.07175413540091428,0.07132218629592947,1.2008399157559566
1.3523158157641735,0.4445697255504645,9.632437644907313,-0.037482047859958054,-0.015348734946947242,0.07175413540091428,0.06996712980446346,1.1983516929958398
1.3148337679042155,0.42922099060351726,9.704191780308227,-0.037482047859958054,-0.015348734946947242,0.07175413540091428,0.06216221091182853,1.2137697963914071
1.2773517200442575,0.41387225565657004,9.77594591570914,-0.037482047859958054,-0.015348734946947242,0.07175413540091428,0.06216221091182853,1.221040033342398
1.2398696721842994,0.3985235207096228,9.847700051110055,-0.037482047859958054,-0.015348734946947242,0.07175413540091428,0.06256098756888988,1.231173020732486
1.2023876243243414,0.3831747857626756,9.919454186510968,-0.037482047859958054,-0.015348734946947242,0.07175413540091428,0.06256098756888988,1.2426918512616234
1.1649055764643834,0.3678260508157284,9.991208321911882,-0.037482047859958054,-0.015348734946947242,0.07175413540091428,0.06256098756888988,1.2454433113897316
1.1732225881932086,0.35382424384556427,9.918003858389888,0.008317011728825058,-0.014001806970164104,-0.07320446352199507,0.06495452965945901,1.2457232067890827
1.1815395999220337,0.33982243687540015,9.844799394867893,0.008317011728825058,-0.014001806970164104,-0.07320446352199507,0.08683076577295909,1.2360592564666364
1.1898566116508589,0.325820629905236,9.771594931345899,0.008317011728825058,-0.014001806970164104,-0.07320446352199507,0.08683076577295909,1.2247466689142785
1.198173623379684,0.3118188229350719,9.698390467823904,0.008317011728825058,-0.014001806970164104,-0.07320446352199507,0.08683076577295909,1.2175693755642483
1.2064906351085092,0.2978170159649078,9.62518600430191,0.008317011728825058,-0.014001806970164104,-0.07320446352199507,0.08683076577295909,1.2148557285319688
1.2148076468373343,0.28381520899474366,9.551981540779915,0.008317011728825058,-0.014001806970164104,-0.07320446352199507,0.08683076577295909,1.2213953735602183
1.2231246585661595,0.26981340202457954,9.47877707725792,0.008317011728825058,-0.014001806970164104,-0.07320446352199507,0.08683076577295909,1.2348145081430166
1.2314416702949846,0.2558115950544154,9.405572613735925,0.008317011728825058,-0.014001806970164104,-0.07320446352199507,0.08683076577295909,1.2224571644603648
1.2397586820238098,0.24180978808425133,9.33236815021393,0.008317011728825058,-0.014001806970164104,-0.07320446352199507,0.08683076577295909,1.2449612098490905
1.248075693752635,0.22780798111408723,9.259163686691936,0.008317011728825058,-0.014001806970164104,-0.07320446352199507,0.08683076577295909,1.2456159936281985
1.25639270548146,0.21380617414392314,9.185959223169942,0.008317011728825058,-0.014001806970164104,-0.07320446352199507,0.08683076577295909,1.247139902767077
1.2647097172102852,0.19980436717375905,9.112754759647947,0.008317011728825058,-0.014001806970164104,-0.07320446352199507,0.08683076577295909,1.2439901010847259
1.2730267289391104,0.18580256020359495,9.039550296125952,0.008317011728825058,-0.014001806970164104,-0.07320446352199507,0.09459294175850279,1.2495878624591705
1.2813437406679355,0.17180075323343086,8.966345832603958,0.008317011728825058,-0.014001806970164104,-0.07320446352199507,0.08701685572515859,1.2384370833062937
1.2896607523967607,0.15779894626326676,8.893141369081963,0.008317011728825058,-0.014001806970164104,-0.07320446352199507,0.08032497756855603,1.2328072502688217
1.2979777641255859,0.14379713929310267,8.819936905559969,0.008317011728825058,-0.014001806970164104,-0.07320446352199507,0.07692244968790736,1.2147461034755378
1.306294775854411,0.12979533232293858,8.746732442037974,0.008317011728825058,-0.014001806970164104,-0.07320446352199507,0.07933169737285653,1.2103351752197482
1.3146117875832362,0.11579352535277447,8.67352797851598,0.008317011728825058,-0.014001806970164104,-0.07320446352199507,0.07933169737285653,1.1993336021648642
1.3229287993120613,0.10179171838261036,8.600323514993985,0.008317011728825058,-0.014001806970164104,-0.07320446352199507,0.07933169737285653,1.2156438410420918
1.3312458110408865,0.08778991141244626,8.52711905147199,0.008317011728825058,-0.014001806970164104,-0.07320446352199507,0.07933169737285653,1.2197384091893604
1.3395628227697116,0.07378810444228215,8.453914587949996,0.008317011728825058,-0.014001806970164104,-0.07320446352199507,0.07586798016426695,1.2069422437960415
1.3478798344985368,0.05978629747211804,8.380710124428001,0.008317011728825058,-0.014001806970164104,-0.07320446352199507,0.08247138699573363,1.2043259768865657
1.356196846227362,0.045784490501953934,8.307505660906006,0.008317011728825058,-0.014001806970164104,-0.07320446352199507,0.08247138699573363,1.2116710457883564
1.364513857956187,0.031782683531789827,8.234301197384012,0.008317011728825058,-0.014001806970164104,-0.07320446352199507,0.08247138699573363,1.2193322218094345
1.3728308696850122,0.017780876561625723,8.161096733862017,0.008317011728825058,-0.014001806970164104,-0.07320446352199507,0.08247138699573363,1.2140598884442957
1.3811478814138374,0.0037790695914616187,8.087892270340022,0.008317011728825058,-0.014001806970164104,-0.07320446352199507,0.07560643914062536,1.211977309037053
1.3894648931426625,-0.010222737378702485,8.014687806818028,0.008317011728825058,-0.014001806970164104,-0.07320446352199507,0.0930737803643557,1.1991801517405583
1.3977819048714877,-0.02422454434886659,7.941483343296032,0.008317011728825058,-0.014001806970164104,-0.07320446352199507,0.0930737803643557,1.1824025880064237
1.4060989166003128,-0.038226351319030696,7.868278879774037,0.008317011728825058,-0.014001806970164104,-0.07320446352199507,0.0930737803643557,1.1891925562015009
1.414415928329138,-0.052228158289194804,7.795074416252041,0.008317011728825058,-0.014001806970164104,-0.07320446352199507,0.0930737803643557,1.1930982430805042
1.4227329400579631,-0.06622996525935891,7.721869952730046,0.008317011728825058,-0.014001806970164104,-0.07320446352199507,0.09185960395029116,1.2132015823482762
1.4310499517867883,-0.08023177222952302,7.64866548920805,0.008317011728825058,-0.014001806970164104,-0.07320446352199507,0.09270540542414371,1.210498165900344
1.4393669635156134,-0.09423357919968713,7.575461025686055,0.008317011728825058,-0.014001806970164104,-0.07320446352199507,0.08432494022596365,1.1880036906668556
1.4476839752444386,-0.10823538616985123,7.502256562164059,0.008317011728825058,-0.014001806970164104,-0.07320446352199507,0.10506674436955565,1.176979983611248
1.4560009869732637,-0.12223719314001534,7.429052098642064,0.008317011728825058,-0.014001806970164104,-0.07320446352199507,0.10506674436955565,1.1777079751204431
1.473049110251064,-0.1175904363295649,7.438258830532709,0.017048123277800354,0.004646756810450452,0.009206731890644486,0.10827490742013188,1.1769851013393349
1.4900972335288645,-0.11294367951911444,7.4474655624233534,0.017048123277800354,0.004646756810450452,0.009206731890644486,0.10827490742013188,1.1816437866605978
1.5071453568066648,-0.10829692270866398,7.456672294313998,0.017048123277800354,0.004646756810450452,0.009206731890644486,0.10742261243402475,1.1875963675877248
1.5241934800844652,-0.10365016589821352,7.465879026204643,0.017048123277800354,0.004646756810450452,0.009206731890644486,0.10742261243402475,1.1936505673608366
1.5412416033622656,-0.09900340908776306,7.475085758095288,0.017048123277800354,0.004646756810450452,0.009206731890644486,0.10264518156490098,1.2099043867895938
1.558289726640066,-0.0943566522773126,7.484292489985933,0.017048123277800354,0.004646756810450452,0.009206731890644486,0.11368075614385034,1.215465302353165
1.5753378499178663,-0.08970989546686214,7.4934992218765775,0.017048123277800354,0.004646756810450452,0.009206731890644486,0.11368075614385034,1.2148510841344708
1.5923859731956667,-0.08506313865641169,7.502705953767222,0.017048123277800354,0.004646756810450452,0.009206731890644486,0.10804059892575563,1.1995272525268845
1.609434096473467,-0.08041638184596123,7.511912685657867,0.017048123277800354,0.004646756810450452,0.009206731890644486,0.13572715529533813,1.1978130409517154
1.6264822197512674,-0.07576962503551077,7.521119417548512,0.017048123277800354,0.004646756810450452,0.009206731890644486,0.13572715529533813,1.2009614485410063
1.6435303430290678,-0.07112286822506031,7.530326149439157,0.017048123277800354,0.004646756810450452,0.009206731890644486,0.13572715529533813,1.2004126549123006
1.6605784663068681,-0.06647611141460985,7.5395328813298015,0.017048123277800354,0.004646756810450452,0.009206731890644486,0.13572715529533813,1.2088453989040213
1.6776265895846685,-0.0618293546041594,7.548739613220446,0.017048123277800354,0.004646756810450452,0.009206731890644486,0.13572715529533813,1.2125145301445956
1.6946747128624688,-0.05718259779370895,7.557946345111091,0.017048123277800354,0.004646756810450452,0.009206731890644486,0.13572715529533813,1.2080207563677166
1.7117228361402692,-0.052535840983258496,7.567153077001736,0.017048123277800354,0.004646756810450452,0.009206731890644486,0.13572715529533813,1.2193493083260547
1.7287709594180696,-0.047889084172808044,7.576359808892381,0.017048123277800354,0.004646756810450452,0.009206731890644486,0.13572715529533813,1.244825142818882
1.74581908269587,-0.04324232736235759,7.5855665407830255,0.017048123277800354,0.004646756810450452,0.009206731890644486,0.13572715529533813,1.2389085931309824
1.7628672059736703,-0.03859557055190714,7.59477327267367,0.017048123277800354,0.004646756810450452,0.009206731890644486,0.13572715529533813,1.2377456754015561
1.7799153292514707,-0.03394881374145669,7.603980004564315,0.017048123277800354,0.004646756810450452,0.009206731890644486,0.13572715529533813,1.2395286459256625
1.796963452529271,-0.029302056931006237,7.61318673645496,0.017048123277800354,0.004646756810450452,0.009206731890644486,0.13264612799146838,1.238499619731258
1.8140115758070714,-0.024655300120555786,7.622393468345605,0.017048123277800354,0.004646756810450452,0.009206731890644486,0.13526419779293955,1.2398126163216907
1.8310596990848718,-0.020008543310105334,7.6316002002362495,0.017048123277800354,0.004646756810450452,0.009206731890644486,0.1356402572240164,1.2309210405836264
1.8481078223626721,-0.015361786499654882,7.640806932126894,0.017048123277800354,0.004646756810450452,0.009206731890644486,0.12474980551402486,1.217202484421716
1.8651559456404725,-0.01071502968920443,7.650013664017539,0.017048123277800354,0.004646756810450452,0.009206731890644486,0.112095546349221,1.2164525906221777
1.8822040689182729,-0.006068272878753979,7.659220395908184,0.017048123277800354,0.004646756810450452,0.009206731890644486,0.10396061323896154,1.2386528726059365
1.8992521921960732,-0.0014215160683035272,7.668427127798829,0.017048123277800354,0.004646756810450452,0.009206731890644486,0.09969270137032932,1.241035689055421
1.9163003154738736,0.0032252407421469245,7.6776338596894735,0.017048123277800354,0.004646756810450452,0.009206731890644486,0.10031184668118899,1.23904014572196
1.933348438751674,0.007871997552597376,7.686840591580118,0.017048123277800354,0.004646756810450452,0.009206731890644486,0.10031184668118899,1.230716944148247
1.9503965620294743,0.012518754363047828,7.696047323470763,0.017048123277800354,0.004646756810450452,0.009206731890644486,0.10031184668118899,1.2264917244107758
1.9674446853072747,0.01716551117349828,7.705254055361408,0.017048123277800354,0.004646756810450452,0.009206731890644486,0.10686550373375354,1.2172416028992181
1.984492808585075,0.02181226798394873,7.714460787252053,0.017048123277800354,0.004646756810450452,0.009206731890644486,0.10686550373375354,1.2111281735553219
2.001540931862875,0.026459024794399183,7.723667519142698,0.017048123277800354,0.004646756810450452,0.009206731890644486,0.09883333483684467,1.2086843855937353
2.0185890551406755,0.031105781604849635,7.732874251033342,0.017048123277800354,0.004646756810450452,0.009206731890644486,0.10203769526549722,1.2160122264068625
2.035637178418476,0.035752538415300086,7.742080982923987,0.017048123277800354,0.004646756810450452,0.009206731890644486,0.10203769526549722,1.214576774744124
2.0526853016962763,0.04039929522575054,7.751287714814632,0.017048123277800354,0.004646756810450452,0.009206731890644486,0.11608997694832025,1.2161213294505704
2.0697334249740766,0.04504605203620099,7.760494446705277,0.017048123277800354,0.004646756810450452,0.009206731890644486,0.11608997694832025,1.229656128071177
2.086781548251877,0.04969280884665144,7.769701178595922,0.017048123277800354,0.004646756810450452,0.009206731890644486,0.11617157500825596,1.2172826004116262
2.1038296715296774,0.05433956565710189,7.778907910486566,0.017048123277800354,0.004646756810450452,0.009206731890644486,0.11617157500825596,1.2281039135670277
2.1208777948074777,0.058986322467552345,7.788114642377211,0.017048123277800354,0.004646756810450452,0.009206731890644486,0.11617157500825596,1.2124299442960447
2.137925918085278,0.0636330792780028,7.797321374267856,0.017048123277800354,0.004646756810450452,0.009206731890644486,0.11617157500825596,1.204378799260381
2.1549740413630785,0.06827983608845326,7.806528106158501,0.017048123277800354,0.004646756810450452,0.009206731890644486,0.11617157500825596,1.205721859003046
2.172022164640879,0.07292659289890371,7.815734838049146,0.017048123277800354,0.004646756810450452,0.009206731890644486,0.11617157500825596,1.2021348541354202
2.189070287918679,0.07757334970935417,7.82494156993979,0.017048123277800354,0.004646756810450452,0.009206731890644486,0.11617157500825596,1.1972589829893534
2.2061184111964796,0.08222010651980463,7.834148301830435,0.017048123277800354,0.004646756810450452,0.009206731890644486,0.11617157500825596,1.1911882598611498
2.22316653447428,0.08686686333025509,7.84335503372108,0.017048123277800354,0.004646756810450452,0.009206731890644486,0.11617157500825596,1.1794870595509694
2.2402146577520803,0.09151362014070555,7.852561765611725,0.017048123277800354,0.004646756810450452,0.009206731890644486,0.11617157500825596,1.1857871505257744
2.2572627810298806,0.096160376951156,7.86176849750237,0.017048123277800354,0.004646756810450452,0.009206731890644486,0.11617157500825596,1.1975439199944211
2.274310904307681,0.10080713376160647,7.870975229393014,0.017048123277800354,0.004646756810450452,0.009206731890644486,0.1105925709812941,1.2159367632840192
2.2913590275854814,0.10545389057205692,7.880181961283659,0.017048123277800354,0.004646756810450452,0.009206731890644486,0.1105925709812941,1.2127752707940238
2.3084071508632817,0.11010064738250738,7.889388693174304,0.017048123277800354,0.004646756810450452,0.009206731890644486,0.1105925709812941,1.2028490852058868
2.325455274141082,0.11474740419295784,7.898595425064949,0.017048123277800354,0.004646756810450452,0.009206731890644486,0.1105925709812941,1.2015260650316073
2.3425033974188825,0.1193941610034083,7.907802156955594,0.017048123277800354,0.004646756810450452,0.009206731890644486,0.1105925709812941,1.2025288088279409
2.359551520696683,0.12404091781385876,7.917008888846238,0.017048123277800354,0.004646756810450452,0.009206731890644486,0.1105925709812941,1.1764174768281688
2.376599643974483,0.12868767462430922,7.926215620736883,0.017048123277800354,0.004646756810450452,0.009206731890644486,0.1105925709812941,1.1687965628500898
2.3936477672522836,0.13333443143475968,7.935422352627528,0.017048123277800354,0.004646756810450452,0.009206731890644486,0.1105925709812941,1.164439379098381
2.410695890530084,0.13798118824521013,7.944629084518173,0.017048123277800354,0.004646756810450452,0.009206731890644486,0.1105925709812941,1.169043630979973
2.4277440138078843,0.1426279450556606,7.953835816408818,0.017048123277800354,0.004646756810450452,0.009206731890644486,0.1105925709812941,1.1624036771306803
2.4447921370856847,0.14727470186611105,7.9630425482994625,0.017048123277800354,0.004646756810450452,0.009206731890644486,0.10070821668824871,1.1675153181100735
2.461840260363485,0.1519214586765615,7.972249280190107,0.017048123277800354,0.004646756810450452,0.009206731890644486,0.108232288185308,1.1751797048947312
2.4788883836412854,0.15656821548701197,7.981456012080752,0.017048123277800354,0.004646756810450452,0.009206731890644486,0.108232288185308,1.1692263390652693
2.4959365069190858,0.16121497229746243,7.990662743971397,0.017048123277800354,0.004646756810450452,0.009206731890644486,0.108232288185308,1.1866606754359428
2.512984630196886,0.1658617291079129,7.999869475862042,0.017048123277800354,0.004646756810450452,0.009206731890644486,0.108232288185308,1.1809432394468284
2.5300327534746865,0.17050848591836335,8.009076207752686,0.017048123277800354,0.004646756810450452,0.009206731890644486,0.108232288185308,1.1728879648477657
2.547080876752487,0.1751552427288138,8.018282939643331,0.017048123277800354,0.004646756810450452,0.009206731890644486,0.108232288185308,1.1880062293958664
2.564129000030287,0.17980199953926426,8.027489671533976,0.017048123277800354,0.004646756810450452,0.009206731890644486,0.108232288185308,1.199392317097182
2.5811771233080876,0.18444875634971472,8.03669640342462,0.017048123277800354,0.004646756810450452,0.009206731890644486,0.108232288185308,1.1883948856037267
2.598225246585888,0.18909551316016518,8.045903135315266,0.017048123277800354,0.004646756810450452,0.009206731890644486,0.108232288185308,1.1887513895853103
2.6152733698636883,0.19374226997061564,8.05510986720591,0.017048123277800354,0.004646756810450452,0.009206731890644486,0.09850138442585894,1.2012883372181542
2.6323214931414887,0.1983890267810661,8.064316599096555,0.017048123277800354,0.004646756810450452,0.009206731890644486,0.09850138442585894,1.2126990883255402
2.649369616419289,0.20303578359151656,8.0735233309872,0.017048123277800354,0.004646756810450452,0.009206731890644486,0.09372251366719844,1.2185447289702198
2.6664177396970894,0.20768254040196701,8.082730062877845,0.017048123277800354,0.004646756810450452,0.009206731890644486,0.09372251366719844,1.218998534762645
2.6834658629748898,0.21232929721241747,8.09193679476849,0.017048123277800354,0.004646756810450452,0.009206731890644486,0.10627525842844582,1.2026503267947477
2.70051398625269,0.21697605402286793,8.101143526659135,0.017048123277800354,0.004646756810450452,0.009206731890644486,0.10627525842844582,1.195096568698932
2.7175621095304905,0.2216228108333184,8.11035025854978,0.017048123277800354,0.004646756810450452,0.009206731890644486,0.10627525842844582,1.1927080496102829
2.734610232808291,0.22626956764376885,8.119556990440424,0.017048123277800354,0.004646756810450452,0.009206731890644486,0.10627525842844582,1.1779819824371867
2.751658356086091,0.2309163244542193,8.128763722331069,0.017048123277800354,0.004646756810450452,0.009206731890644486,0.10627525842844582,1.1935187640783258
2.7687064793638916,0.23556308126466977,8.137970454221714,0.017048123277800354,0.004646756810450452,0.009206731890644486,0.10627525842844582,1.1980777743993698
2.785754602641692,0.24020983807512022,8.147177186112359,0.017048123277800354,0.004646756810450452,0.009206731890644486,0.10627525842844582,1.1872557262633079
2.8028027259194923,0.24485659488557068,8.156383918003003,0.017048123277800354,0.004646756810450452,0.009206731890644486,0.10627525842844582,1.178737449874129
2.7883642123558112,0.24394719381581165,8.217928338477318,-0.014438513563681268,-0.0009094010697590485,0.06154442047431463,0.10627525842844582,1.179225401738983
2.77392569879213,0.2430377927460526,8.279472758951632,-0.014438513563681268,-0.0009094010697590485,0.06154442047431463,0.10627525842844582,1.1941410801110772
2.759487185228449,0.24212839167629358,8.341017179425947,-0.014438513563681268,-0.0009094010697590485,0.06154442047431463,0.10627525842844582,1.178768547003741
2.745048671664768,0.24121899060653454,8.402561599900261,-0.014438513563681268,-0.0009094010697590485,0.06154442047431463,0.11225425702604644,1.1896786753625206
2.730610158101087,0.2403095895367755,8.464106020374576,-0.014438513563681268,-0.0009094010697590485,0.06154442047431463,0.10511737387127545,1.1854847253698053
2.716171644537406,0.23940018846701647,8.52565044084889,-0.014438513563681268,-0.0009094010697590485,0.06154442047431463,0.09642498981482309,1.2057018166950226
2.7017331309737247,0.23849078739725743,8.587194861323205,-0.014438513563681268,-0.0009094010697590485,0.06154442047431463,0.09947868944707111,1.2057548465282804
2.6872946174100436,0.2375813863274984,8.64873928179752,-0.014438513563681268,-0.0009094010697590485,0.06154442047431463,0.09947868944707111,1.1898294285111244
2.6728561038463625,0.23667198525773936,8.710283702271834,-0.014438513563681268,-0.0009094010697590485,0.06154442047431463,0.09947868944707111,1.200985804469255
2.6584175902826814,0.23576258418798032,8.771828122746149,-0.014438513563681268,-0.0009094010697590485,0.06154442047431463,0.09947868944707111,1.1846444533122207
2.6439790767190003,0.2348531831182213,8.833372543220463,-0.014438513563681268,-0.0009094010697590485,0.06154442047431463,0.09947868944707111,1.1932650314241133
2.6295405631553193,0.23394378204846225,8.894916963694778,-0.014438513563681268,-0.0009094010697590485,0.06154442047431463,0.09947868944707111,1.1857851207760528
2.615102049591638,0.23303438097870321,8.956461384169092,-0.014438513563681268,-0.0009094010697590485,0.06154442047431463,0.09947868944707111,1.1740532585838426
2.600663536027957,0.23212497990894418,9.018005804643407,-0.014438513563681268,-0.0009094010697590485,0.06154442047431463,0.09947868944707111,1.1668430300036499
2.586225022464276,0.23121557883918514,9.079550225117721,-0.014438513563681268,-0.0009094010697590485,0.06154442047431463,0.09947868944707111,1.1829106898604462
2.571786508900595,0.2303061777694261,9.141094645592036,-0.014438513563681268,-0.0009094010697590485,0.06154442047431463,0.09947868944707111,1.1763421202256956
2.557347995336914,0.22939677669966707,9.20263906606635,-0.014438513563681268,-0.0009094010697590485,0.06154442047431463,0.09947868944707111,1.1783038264954964
2.5429094817732327,0.22848737562990803,9.264183486540665,-0.014438513563681268,-0.0009094010697590485,0.06154442047431463,0.10112232729424062,1.167898795607742
2.5284709682095516,0.227577974560149,9.32572790701498,-0.014438513563681268,-0.0009094010697590485,0.06154442047431463,0.10003863813947679,1.1806374876264711
2.5140324546458706,0.22666857349038996,9.387272327489294,-0.014438513563681268,-0.0009094010697590485,0.06154442047431463,0.0961405508083176,1.1695051434903072
2.4995939410821895,0.22575917242063093,9.448816747963608,-0.014438513563681268,-0.0009094010697590485,0.06154442047431463,0.10773260500902006,1.1743984439355257
2.4851554275185084,0.2248497713508719,9.510361168437923,-0.014438513563681268,-0.0009094010697590485,0.06154442047431463,0.10299040264711173,1.1875706293320865
2.4707169139548273,0.22394037028111285,9.571905588912237,-0.014438513563681268,-0.0009094010697590485,0.06154442047431463,0.10776709285752968,1.2012621498689078
2.456278400391146,0.22303096921135382,9.633450009386552,-0.014438513563681268,-0.0009094010697590485,0.06154442047431463,0.10361969398899575,1.177760670246347
2.441839886827465,0.22212156814159478,9.694994429860866,-0.014438513563681268,-0.0009094010697590485,0.06154442047431463,0.1048327003929954,1.1795672973844669
2.427401373263784,0.22121216707183575,9.75653885033518,-0.014438513563681268,-0.0009094010697590485,0.06154442047431463,0.10546253917632767,1.1931278412442767
2.412962859700103,0.2203027660020767,9.818083270809495,-0.014438513563681268,-0.0009094010697590485,0.06154442047431463,0.10183449604690688,1.1888552567465829
2.398524346136422,0.21939336493231767,9.87962769128381,-0.014438513563681268,-0.0009094010697590485,0.06154442047431463,0.09609541260884401,1.1687625804583528
2.3840858325727408,0.21848396386255864,9.941172111758124,-0.014438513563681268,-0.0009094010697590485,0.06154442047431463,0.09162504683140958,1.186459739301156
2.4040799415714758,0.20081694059375485,9.950359626330949,0.019994108998734883,-0.017667023268803796,0.00918751457282442,0.08902477930101123,1.198925674312816
2.4240740505702107,0.18314991732495106,9.959547140903773,0.019994108998734883,-0.017667023268803796,0.00918751457282442,0.08225276978389094,1.2063628817087453
2.4440681595689457,0.16548289405614727,9.968734655476597,0.019994108998734883,-0.017667023268803796,0.00918751457282442,0.07659590838818718,1.1991288270834555
2.4640622685676807,0.14781587078734348,9.977922170049421,0.019994108998734883,-0.017667023268803796,0.00918751457282442,0.07233047716515766,1.1812771089880885
2.4840563775664157,0.1301488475185397,9.987109684622245,0.019994108998734883,-0.017667023268803796,0.00918751457282442,0.08950808523466604,1.1762122513159896
2.5040504865651507,0.1124818242497359,9.99629719919507,0.019994108998734883,-0.017667023268803796,0.00918751457282442,0.08950808523466604,1.1785761800360337
2.558064951462163,0.09833706494340083,9.976002354501263,0.0540144648970126,-0.014144759306335079,-0.02029484469380692,0.08950808523466604,1.17398037143717
2.6120794163591756,0.08419230563706576,9.955707509807457,0.0540144648970126,-0.014144759306335079,-0.02029484469380692,0.08950808523466604,1.1752272615541264
2.666093881256188,0.07004754633073068,9.93541266511365,0.0540144648970126,-0.014144759306335079,-0.02029484469380692,0.08950808523466604,1.1815809461801223
2.7201083461532005,0.055902787024395606,9.915117820419844,0.0540144648970126,-0.014144759306335079,-0.02029484469380692,0.08950808523466604,1.1732897751501372
2.774122811050213,0.04175802771806053,9.894822975726038,0.0540144648970126,-0.014144759306335079,-0.02029484469380692,0.08950808523466604,1.1771054771038825
2.8281372759472254,0.027613268411725452,9.874528131032232,0.0540144648970126,-0.014144759306335079,-0.02029484469380692,0.08950808523466604,1.165363370679771
2.882151740844238,0.013468509105390374,9.854233286338426,0.0540144648970126,-0.014144759306335079,-0.02029484469380692,0.08950808523466604,1.1581186070324134
2.9361662057412503,-0.0006762502009447051,9.83393844164462,0.0540144648970126,-0.014144759306335079,-0.02029484469380692,0.08950808523466604,1.1661999061429766
2.9901806706382628,-0.014821009507279784,9.813643596950813,0.0540144648970126,-0.014144759306335079,-0.02029484469380692,0.08950808523466604,1.1473291418077722
3.044195135535275,-0.028965768813614862,9.793348752257007,0.0540144648970126,-0.014144759306335079,-0.02029484469380692,0.10022679582693617,1.15966731592576
3.0982096004322877,-0.04311052811994994,9.7730539075632,0.0540144648970126,-0.014144759306335079,-0.02029484469380692,0.1008580144995153,1.1690505755039509
3.1522240653293,-0.05725528742628502,9.752759062869394,0.0540144648970126,-0.014144759306335079,-0.02029484469380692,0.10254997535665894,1.1606096700444528
3.2062385302263126,-0.0714000467326201,9.732464218175588,0.0540144648970126,-0.014144759306335079,-0.02029484469380692,0.10338650636041548,1.1462579184390016
3.260252995123325,-0.08554480603895517,9.712169373481782,0.0540144648970126,-0.014144759306335079,-0.02029484469380692,0.1115904038320733,1.1608385019995635
3.3142674600203375,-0.09968956534529025,9.691874528787976,0.0540144648970126,-0.014144759306335079,-0.02029484469380692,0.11637200853808137,1.1496850488987893
3.36828192491735,-0.11383432465162532,9.67157968409417,0.0540144648970126,-0.014144759306335079,-0.02029484469380692,0.12014542662799549,1.1490394199649323
3.4222963898143623,-0.1279790839579604,9.651284839400363,0.0540144648970126,-0.014144759306335079,-0.02029484469380692,0.10900878924609102,1.1546384364234945
3.476310854711375,-0.14212384326429547,9.630989994706557,0.0540144648970126,-0.014144759306335079,-0.02029484469380692,0.10635604165063714,1.1485518620942858
3.5303253196083872,-0.15626860257063055,9.61069515001275,0.0540144648970126,-0.014144759306335079,-0.02029484469380692,0.11065395864218308,1.1397763786549417
3.5843397845053997,-0.17041336187696562,9.590400305318944,0.0540144648970126,-0.014144759306335079,-0.02029484469380692,0.11984346317114912,1.1264975747933332
3.638354249402412,-0.1845581211833007,9.570105460625138,0.0540144648970126,-0.014144759306335079,-0.02029484469380692,0.12156386673220694,1.1336755089760833
3.6923687142994246,-0.19870288048963577,9.549810615931332,0.0540144648970126,-0.014144759306335079,-0.02029484469380692,0.12194968057224058,1.149113916718852
3.746383179196437,-0.21284763979597085,9.529515771237525,0.0540144648970126,-0.014144759306335079,-0.02029484469380692,0.12529782442817555,1.151922438058028
3.8003976440934495,-0.22699239910230593,9.509220926543719,0.0540144648970126,-0.014144759306335079,-0.02029484469380692,0.12283863369184268,1.146310985001557
3.854412108990462,-0.241137158408641,9.488926081849913,0.0540144648970126,-0.014144759306335079,-0.02029484469380692,0.1226662741242554,1.145127567886112
3.9084265738874744,-0.2552819177149761,9.468631237156107,0.0540144648970126,-0.014144759306335079,-0.02029484469380692,0.12097833905914081,1.151255656086731
3.962441038784487,-0.2694266770213112,9.4483363924623,0.0540144648970126,-0.014144759306335079,-0.02029484469380692,0.12301866295460884,1.1700260106174987
4.0164555036815,-0.28357143632764625,9.428041547768494,0.0540144648970126,-0.014144759306335079,-0.02029484469380692,0.122956617700263,1.1755788576085275
4.070469968578513,-0.29771619563398133,9.407746703074688,0.0540144648970126,-0.014144759306335079,-0.02029484469380692,0.12157178245727797,1.185589360051273
4.1244844334755255,-0.3118609549403164,9.387451858380881,0.0540144648970126,-0.014144759306335079,-0.02029484469380692,0.11290276870534939,1.1875008019005036
4.178498898372538,-0.3260057142466515,9.367157013687075,0.0540144648970126,-0.014144759306335079,-0.02029484469380692,0.11870544255801811,1.1990303503634028
4.232513363269551,-0.34015047355298655,9.346862168993269,0.0540144648970126,-0.014144759306335079,-0.02029484469380692,0.12174394448001502,1.1991755680072855
4.286527828166564,-0.35429523285932163,9.326567324299463,0.0540144648970126,-0.014144759306335079,-0.02029484469380692,0.11774446879729665,1.1994037702844542
4.340542293063577,-0.3684399921656567,9.306272479605656,0.0540144648970126,-0.014144759306335079,-0.02029484469380692,0.11701254747520462,1.1979745812116598
4.39455675796059,-0.3825847514719918,9.28597763491185,0.0540144648970126,-0.014144759306335079,-0.02029484469380692,0.11859011695436084,1.2036426815933572
4.448571222857603,-0.39672951077832685,9.265682790218044,0.0540144648970126,-0.014144759306335079,-0.02029484469380692,0.12683045536106458,1.2003177562615528
4.502585687754616,-0.41087427008466193,9.245387945524238,0.0540144648970126,-0.014144759306335079,-0.02029484469380692,0.1277659760796145,1.2125459734817376
4.556600152651629,-0.425019029390997,9.225093100830431,0.0540144648970126,-0.014144759306335079,-0.02029484469380692,0.12800515309909424,1.2067122466708822
4.6106146175486415,-0.4391637886973321,9.204798256136625,0.0540144648970126,-0.014144759306335079,-0.02029484469380692,0.13596443860976143,1.2029725840997476
4.664629082445654,-0.45330854800366716,9.184503411442819,0.0540144648970126,-0.014144759306335079,-0.02029484469380692,0.13012829302369533,1.1944155560636724
4.718643547342667,-0.46745330731000223,9.164208566749013,0.0540144648970126,-0.014144759306335079,-0.02029484469380692,0.1329414236178989,1.1933524452470259
4.77265801223968,-0.4815980666163373,9.143913722055206,0.0540144648970126,-0.014144759306335079,-0.02029484469380692,0.12441063197695273,1.1838939789769984
4.826672477136693,-0.4957428259226724,9.1236188773614,0.0540144648970126,-0.014144759306335079,-0.02029484469380692,0.12926905796328245,1.1624737584236522
4.880686942033706,-0.5098875852290075,9.103324032667594,0.0540144648970126,-0.014144759306335079,-0.02029484469380692,0.1310116000781351,1.1681963260797334
4.934701406930719,-0.5240323445353425,9.083029187973787,0.0540144648970126,-0.014144759306335079,-0.02029484469380692,0.12625313595641308,1.1727053134502656
4.988715871827732,-0.5381771038416776,9.062734343279981,0.0540144648970126,-0.014144759306335079,-0.02029484469380692,0.11865230798521366,1.1791905563475362
5.042730336724745,-0.5523218631480127,9.042439498586175,0.0540144648970126,-0.014144759306335079,-0.02029484469380692,0.11532855370140312,1.1757696934272515
5.096744801621758,-0.5664666224543478,9.022144653892369,0.0540144648970126,-0.014144759306335079,-0.02029484469380692,0.12220661877178232,1.1727875170646462
5.1507592665187705,-0.5806113817606828,9.001849809198562,0.0540144648970126,-0.014144759306335079,-0.02029484469380692,0.12531883884615128,1.1890065005406942
5.204773731415783,-0.5947561410670179,8.981554964504756,0.0540144648970126,-0.014144759306335079,-0.02029484469380692,0.12932733759791548,1.1993703557989543
5.258788196312796,-0.608900900373353,8.96126011981095,0.0540144648970126,-0.014144759306335079,-0.02029484469380692,0.13047258355928185,1.1915740174374754
5.312802661209809,-0.6230456596796881,8.940965275117144,0.0540144648970126,-0.014144759306335079,-0.02029484469380692,0.1227376787000227,1.1957115436098242
5.366817126106822,-0.6371904189860231,8.920670430423337,0.0540144648970126,-0.014144759306335079,-0.02029484469380692,0.12285733103050524,1.1901510876282884
5.420831591003835,-0.6513351782923582,8.900375585729531,0.0540144648970126,-0.014144759306335079,-0.02029484469380692,0.12123056106047107,1.1892264118373623
5.474846055900848,-0.6654799375986933,8.880080741035725,0.0540144648970126,-0.014144759306335079,-0.02029484469380692,0.11259581669219008,1.1683732633689248
5.528860520797861,-0.6796246969050284,8.859785896341918,0.0540144648970126,-0.014144759306335079,-0.02029484469380692,0.11551584736602395,1.1747031170486564
5.582874985694874,-0.6937694562113634,8.839491051648112,0.0540144648970126,-0.014144759306335079,-0.02029484469380692,0.1183325682865922,1.199361706779987
5.6368894505918865,-0.7079142155176985,8.819196206954306,0.0540144648970126,-0.014144759306335079,-0.02029484469380692,0.10727365490479762,1.210270311575643
5.690903915488899,-0.7220589748240336,8.7989013622605,0.0540144648970126,-0.014144759306335079,-0.02029484469380692,0.10673150707304156,1.2130756043165205
5.744918380385912,-0.7362037341303687,8.778606517566693,0.0540144648970126,-0.014144759306335079,-0.02029484469380692,0.11605625289780686,1.2129655728935747
5.798932845282925,-0.7503484934367037,8.758311672872887,0.0540144648970126,-0.014144759306335079,-0.02029484469380692,0.10943233156472326,1.2222148923105336
5.852947310179938,-0.7644932527430388,8.73801682817908,0.0540144648970126,-0.014144759306335079,-0.02029484469380692,0.10833579225878855,1.2273889992158165
5.906961775076951,-0.7786380120493739,8.717721983485275,0.0540144648970126,-0.014144759306335079,-0.02029484469380692,0.10005517052646204,1.2280591381747492
5.960976239973964,-0.792782771355709,8.697427138791468,0.0540144648970126,-0.014144759306335079,-0.02029484469380692,0.1063235536448551,1.249603296878695
6.014990704870977,-0.806927530662044,8.677132294097662,0.0540144648970126,-0.014144759306335079,-0.02029484469380692,0.10437129196068154,1.22545992477662
6.06900516976799,-0.8210722899683791,8.656837449403856,0.0540144648970126,-0.014144759306335079,-0.02029484469380692,0.1026082945155356,1.2286533228362488
6.1230196346650025,-0.8352170492747142,8.63654260471005,0.0540144648970126,-0.014144759306335079,-0.02029484469380692,0.10064662442508933,1.2324475291797816
6.177034099562015,-0.8493618085810493,8.616247760016243,0.0540144648970126,-0.014144759306335079,-0.02029484469380692,0.10195056539159802,1.2103863358233469
6.214931440538583,-0.8520665567331701,8.601842299066579,0.03789734097656787,-0.0027047481521208063,-0.014405460949665104,0.09595335718036871,1.2021809548986966
6.252828781515151,-0.854771304885291,8.587436838116915,0.03789734097656787,-0.0027047481521208063,-0.014405460949665104,0.08689811651505523,1.20471104816727
6.290726122491719,-0.8574760530374118,8.57303137716725,0.03789734097656787,-0.0027047481521208063,-0.014405460949665104,0.08827109384998995,1.1848998850791832
6.328623463468287,-0.8601808011895327,8.558625916217586,0.03789734097656787,-0.0027047481521208063,-0.014405460949665104,0.07835798560743079,1.1693510678375367
6.366520804444855,-0.8628855493416535,8.544220455267922,0.03789734097656787,-0.0027047481521208063,-0.014405460949665104,0.10278700970629594,1.1550999865123308
6.404418145421423,-0.8655902974937744,8.529814994318258,0.03789734097656787,-0.0027047481521208063,-0.014405460949665104,0.10278700970629594,1.1483360277696653
6.442315486397991,-0.8682950456458952,8.515409533368594,0.03789734097656787,-0.0027047481521208063,-0.014405460949665104,0.10278700970629594,1.151582123774158
6.480212827374559,-0.8709997937980161,8.50100407241893,0.03789734097656787,-0.0027047481521208063,-0.014405460949665104,0.10278700970629594,1.1478317560102977
6.518110168351127,-0.8737045419501369,8.486598611469265,0.03789734097656787,-0.0027047481521208063,-0.014405460949665104,0.10278700970629594,1.1421110050577061
6.556007509327695,-0.8764092901022578,8.472193150519601,0.03789734097656787,-0.0027047481521208063,-0.014405460949665104,0.10278700970629594,1.1409715046242117
6.593904850304263,-0.8791140382543786,8.457787689569937,0.03789734097656787,-0.0027047481521208063,-0.014405460949665104,0.10278700970629594,1.1287055394282857
6.631802191280831,-0.8818187864064995,8.443382228620273,0.03789734097656787,-0.0027047481521208063,-0.014405460949665104,0.10278700970629594,1.1448922868255507
6.669699532257399,-0.8845235345586203,8.428976767670608,0.03789734097656787,-0.0027047481521208063,-0.014405460949665104,0.10278700970629594,1.1489763701439002
6.707596873233967,-0.8872282827107412,8.414571306720944,0.03789734097656787,-0.0027047481521208063,-0.014405460949665104,0.10278700970629594,1.1571920297822254
6.7454942142105345,-0.889933030862862,8.40016584577128,0.03789734097656787,-0.0027047481521208063,-0.014405460949665104,0.10278700970629594,1.1531244214404468
6.7833915551871025,-0.8926377790149829,8.385760384821616,0.03789734097656787,-0.0027047481521208063,-0.014405460949665104,0.10744141557064119,1.1465132627439885
6.82128889616367,-0.8953425271671037,8.371354923871952,0.03789734097656787,-0.0027047481521208063,-0.014405460949665104,0.09797570350949747,1.1334937401627343
6.859186237140238,-0.8980472753192246,8.356949462922287,0.03789734097656787,-0.0027047481521208063,-0.014405460949665104,0.09316507123859182,1.1265930316880055
6.897083578116806,-0.9007520234713454,8.342544001972623,0.03789734097656787,-0.0027047481521208063,-0.014405460949665104,0.09316507123859182,1.1129188764496651
6.934980919093374,-0.9034567716234663,8.328138541022959,0.03789734097656787,-0.0027047481521208063,-0.014405460949665104,0.09316507123859182,1.1032926216388061
6.972878260069942,-0.9061615197755871,8.313733080073295,0.03789734097656787,-0.0027047481521208063,-0.014405460949665104,0.09316507123859182,1.0904747315796641
7.01077560104651,-0.908866267927708,8.29932761912363,0.03789734097656787,-0.0027047481521208063,-0.014405460949665104,0.09316507123859182,1.0789902848673336
7.048672942023078,-0.9115710160798288,8.284922158173966,0.03789734097656787,-0.0027047481521208063,-0.014405460949665104,0.09316507123859182,1.0778800809290638
7.086570282999646,-0.9142757642319497,8.270516697224302,0.03789734097656787,-0.0027047481521208063,-0.014405460949665104,0.09316507123859182,1.074793774056981
7.124467623976214,-0.9169805123840705,8.256111236274638,0.03789734097656787,-0.0027047481521208063,-0.014405460949665104,0.08817734495732797,1.0884067969271585
7.162364964952782,-0.9196852605361914,8.241705775324974,0.03789734097656787,-0.0027047481521208063,-0.014405460949665104,0.08817734495732797,1.103838161855715
7.20026230592935,-0.9223900086883122,8.22730031437531,0.03789734097656787,-0.0027047481521208063,-0.014405460949665104,0.08817734495732797,1.1076069107953972
7.238159646905918,-0.9250947568404331,8.212894853425645,0.03789734097656787,-0.0027047481521208063,-0.014405460949665104,0.0830778028979628,1.109093074779596
7.276056987882486,-0.9277995049925539,8.198489392475981,0.03789734097656787,-0.0027047481521208063,-0.014405460949665104,0.0830778028979628,1.1096899100463178
7.313954328859054,-0.9305042531446748,8.184083931526317,0.03789734097656787,-0.0027047481521208063,-0.014405460949665104,0.09509624493394271,1.1180961753035197
7.3518516698356215,-0.9332090012967956,8.169678470576653,0.03789734097656787,-0.0027047481521208063,-0.014405460949665104,0.09792781264341852,1.106165599694769
7.3897490108121895,-0.9359137494489165,8.155273009626988,0.03789734097656787,-0.0027047481521208063,-0.014405460949665104,0.09299212277943063,1.084919323914198
7.427646351788757,-0.9386184976010373,8.140867548677324,0.03789734097656787,-0.0027047481521208063,-0.014405460949665104,0.10262333689283754,1.0664726214970774
7.465543692765325,-0.9413232457531582,8.12646208772766,0.03789734097656787,-0.0027047481521208063,-0.014405460949665104,0.10262333689283754,1.0635905771250882
7.503441033741893,-0.944027993905279,8.112056626777996,0.03789734097656787,-0.0027047481521208063,-0.014405460949665104,0.10262333689283754,1.0613745932082561
7.541338374718461,-0.9467327420573999,8.097651165828331,0.03789734097656787,-0.0027047481521208063,-0.014405460949665104,0.10262333689283754,1.063145404494356
7.579235715695029,-0.9494374902095207,8.083245704878667,0.03789734097656787,-0.0027047481521208063,-0.014405460949665104,0.10262333689283754,1.0629239542225044
7.617133056671597,-0.9521422383616416,8.068840243929003,0.03789734097656787,-0.0027047481521208063,-0.014405460949665104,0.10262333689283754,1.069344208304852
7.655030397648165,-0.9548469865137624,8.054434782979339,0.03789734097656787,-0.0027047481521208063,-0.014405460949665104,0.11241513778981897,1.0640332788118383
7.692927738624733,-0.9575517346658833,8.040029322029675,0.03789734097656787,-0.0027047481521208063,-0.014405460949665104,0.11241513778981897,1.0689542649416235
7.730825079601301,-0.9602564828180041,8.02562386108001,0.03789734097656787,-0.0027047481521208063,-0.014405460949665104,0.11241513778981897,1.0551661527343816
7.768722420577869,-0.962961230970125,8.011218400130346,0.03789734097656787,-0.0027047481521208063,-0.014405460949665104,0.11241513778981897,1.0412291821081145
7.806619761554437,-0.9656659791222458,7.996812939180681,0.03789734097656787,-0.0027047481521208063,-0.014405460949665104,0.11241513778981897,1.0415582927723126
7.844517102531005,-0.9683707272743667,7.982407478231016,0.03789734097656787,-0.0027047481521208063,-0.014405460949665104,0.11241513778981897,1.037913793788691
7.882414443507573,-0.9710754754264875,7.968002017281351,0.03789734097656787,-0.0027047481521208063,-0.014405460949665104,0.11241513778981897,1.026090583175483
7.920311784484141,-0.9737802235786084,7.953596556331686,0.03789734097656787,-0.0027047481521208063,-0.014405460949665104,0.11241513778981897,1.0013784294510144
7.958209125460709,-0.9764849717307292,7.939191095382021,0.03789734097656787,-0.0027047481521208063,-0.014405460949665104,0.11241513778981897,1.005553722453179
7.9961064664372765,-0.9791897198828501,7.9247856344323555,0.03789734097656787,-0.0027047481521208063,-0.014405460949665104,0.11241513778981897,1.002171945475092
8.034003807413844,-0.9818944680349709,7.91038017348269,0.03789734097656787,-0.0027047481521208063,-0.014405460949665104,0.11241513778981897,1.0011863549866842
8.071901148390412,-0.9845992161870918,7.895974712533025,0.03789734097656787,-0.0027047481521208063,-0.014405460949665104,0.1014293582880172,1.0004390678752773
8.109798489366979,-0.9873039643392126,7.88156925158336,0.03789734097656787,-0.0027047481521208063,-0.014405460949665104,0.10053128874762982,1.0017156699441405
8.147695830343546,-0.9900087124913335,7.867163790633695,0.03789734097656787,-0.0027047481521208063,-0.014405460949665104,0.10053128874762982,0.9984464230022106
8.185593171320113,-0.9927134606434543,7.85275832968403,0.03789734097656787,-0.0027047481521208063,-0.014405460949665104,0.10053128874762982,0.9930427773275528
8.22349051229668,-0.9954182087955752,7.838352868734365,0.03789734097656787,-0.0027047481521208063,-0.014405460949665104,0.09206293065211399,0.9977549575808968
8.261387853273247,-0.998122956947696,7.8239474077847,0.03789734097656787,-0.0027047481521208063,-0.014405460949665104,0.09306386847061016,0.9969857182582857
8.299285194249814,-1.0008277050998169,7.809541946835035,0.03789734097656787,-0.0027047481521208063,-0.014405460949665104,0.0848220557652279,1.004124175042705
8.33718253522638,-1.0035324532519376,7.79513648588537,0.03789734097656787,-0.0027047481521208063,-0.014405460949665104,0.08385369555171682,1.0061736342298966
8.375079876202948,-1.0062372014040584,7.7807310249357045,0.03789734097656787,-0.0027047481521208063,-0.014405460949665104,0.0914561384774008,0.9879859581842715
8.412977217179515,-1.008941949556179,7.766325563986039,0.03789734097656787,-0.0027047481521208063,-0.014405460949665104,0.11163019053789858,0.984203692894049
8.450874558156082,-1.0116466977082998,7.751920103036374,0.03789734097656787,-0.0027047481521208063,-0.014405460949665104,0.11163019053789858,0.9771955199025066
8.488771899132649,-1.0143514458604206,7.737514642086709,0.03789734097656787,-0.0027047481521208063,-0.014405460949665104,0.11163019053789858,0.9787814673661853
8.526669240109216,-1.0170561940125413,7.723109181137044,0.03789734097656787,-0.0027047481521208063,-0.014405460949665104,0.11163019053789858,0.9714510415962105
8.564566581085783,-1.019760942164662,7.708703720187379,0.03789734097656787,-0.0027047481521208063,-0.014405460949665104,0.11163019053789858,0.9832886960852062
8.60246392206235,-1.0224656903167828,7.694298259237714,0.03789734097656787,-0.0027047481521208063,-0.014405460949665104,0.10905487956885679,0.9730845887481077
8.640361263038917,-1.0251704384689035,7.679892798288049,0.03789734097656787,-0.0027047481521208063,-0.014405460949665104,0.10905487956885679,0.9870820621440083
8.678258604015484,-1.0278751866210243,7.665487337338384,0.03789734097656787,-0.0027047481521208063,-0.014405460949665104,0.10905487956885679,0.9983741793776434
