theta,phi,z,dtheta,dphi,dz,ecg,eda
2.620226532717789,0.6921698100037763,1.001029373356104,0.0,0.0,0.0,0.610765896188632,2.6169638960101165
2.658923201103576,0.6741156831765464,1.0125254299609556,0.03869666838578712,-0.018054126827229948,0.011496056604851654,0.610765896188632,2.6169638960101165
2.697619869489363,0.6560615563493164,1.0240214865658073,0.03869666838578712,-0.018054126827229948,0.011496056604851654,0.610765896188632,2.6169638960101165
2.73631653787515,0.6380074295220864,1.035517543170659,0.03869666838578712,-0.018054126827229948,0.011496056604851654,0.610765896188632,2.6169638960101165
2.775013206260937,0.6199533026948565,1.0470135997755106,0.03869666838578712,-0.018054126827229948,0.011496056604851654,0.610765896188632,2.6169638960101165
2.813709874646724,0.6018991758676265,1.0585096563803622,0.03869666838578712,-0.018054126827229948,0.011496056604851654,0.610765896188632,2.6169638960101165
2.852406543032511,0.5838450490403966,1.0700057129852139,0.03869666838578712,-0.018054126827229948,0.011496056604851654,0.6082997588534707,2.6169638960101165
2.891103211418298,0.5657909222131666,1.0815017695900655,0.03869666838578712,-0.018054126827229948,0.011496056604851654,0.6113309226344597,2.6169638960101165
2.929799879804085,0.5477367953859367,1.0929978261949171,0.03869666838578712,-0.018054126827229948,0.011496056604851654,0.6113309226344597,2.6169638960101165
2.968496548189872,0.5296826685587067,1.1044938827997688,0.03869666838578712,-0.018054126827229948,0.011496056604851654,0.6113309226344597,2.6169638960101165
3.007193216575659,0.5116285417314768,1.1159899394046204,0.03869666838578712,-0.018054126827229948,0.011496056604851654,0.6099750549096266,2.6169638960101165
3.045889884961446,0.4935744149042468,1.127485996009472,0.03869666838578712,-0.018054126827229948,0.011496056604851654,0.6099750549096266,2.6169638960101165
3.084586553347233,0.47552028807701685,1.1389820526143237,0.03869666838578712,-0.018054126827229948,0.011496056604851654,0.6099750549096266,2.6169638960101165
3.12328322173302,0.4574661612497869,1.1504781092191754,0.03869666838578712,-0.018054126827229948,0.011496056604851654,0.6099750549096266,2.6169638960101165
3.161979890118807,0.43941203442255694,1.161974165824027,0.03869666838578712,-0.018054126827229948,0.011496056604851654,0.6099750549096266,2.6169638960101165
3.200676558504594,0.421357907595327,1.1734702224288787,0.03869666838578712,-0.018054126827229948,0.011496056604851654,0.6099750549096266,2.6169638960101165
3.239373226890381,0.40330378076809703,1.1849662790337303,0.03869666838578712,-0.018054126827229948,0.011496056604851654,0.6099750549096266,2.6169638960101165
3.278069895276168,0.3852496539408671,1.196462335638582,0.03869666838578712,-0.018054126827229948,0.011496056604851654,0.6099750549096266,2.6169638960101165
3.316766563661955,0.3671955271136371,1.2079583922434336,0.03869666838578712,-0.018054126827229948,0.011496056604851654,0.6099750549096266,2.6169638960101165
3.355463232047742,0.34914140028640717,1.2194544488482852,0.03869666838578712,-0.018054126827229948,0.011496056604851654,0.6099750549096266,2.6169638960101165
3.394159900433529,0.3310872734591772,1.230950505453137,0.03869666838578712,-0.018054126827229948,0.011496056604851654,0.6099750549096266,2.6169638960101165
3.4328565688193162,0.31303314663194726,1.2424465620579885,0.03869666838578712,-0.018054126827229948,0.011496056604851654,0.6022222663326066,2.6169638960101165
3.4715532372051032,0.2949790198047173,1.2539426186628402,0.03869666838578712,-0.018054126827229948,0.011496056604851654,0.5950085377562837,2.6169638960101165
3.5102499055908902,0.27692489297748735,1.2654386752676918,0.03869666838578712,-0.018054126827229948,0.011496056604851654,0.6050259355388061,2.6169638960101165
3.5489465739766772,0.2588707661502574,1.2769347318725435,0.03869666838578712,-0.018054126827229948,0.011496056604851654,0.6050259355388061,2.6169638960101165
3.5876432423624642,0.24081663932302744,1.2884307884773951,0.03869666838578712,-0.018054126827229948,0.011496056604851654,0.6050259355388061,2.6169638960101165
3.6263399107482512,0.22276251249579748,1.2999268450822468,0.03869666838578712,-0.018054126827229948,0.011496056604851654,0.6050259355388061,2.6169638960101165
3.6650365791340382,0.20470838566856753,1.3114229016870984,0.03869666838578712,-0.018054126827229948,0.011496056604851654,0.6050259355388061,2.6169638960101165
3.7037332475198252,0.18665425884133757,1.32291895829195,0.03869666838578712,-0.018054126827229948,0.011496056604851654,0.6050259355388061,2.6169638960101165
3.7424299159056122,0.16860013201410762,1.3344150148968017,0.03869666838578712,-0.018054126827229948,0.011496056604851654,0.6050259355388061,2.6169638960101165
3.7811265842913993,0.15054600518687766,1.3459110715016533,0.03869666838578712,-0.018054126827229948,0.011496056604851654,0.6050259355388061,2.6169638960101165
3.8198232526771863,0.1324918783596477,1.357407128106505,0.03869666838578712,-0.018054126827229948,0.011496056604851654,0.6050259355388061,2.6169638960101165
3.8585199210629733,0.11443775153241775,1.3689031847113566,0.03869666838578712,-0.018054126827229948,0.011496056604851654,0.6050259355388061,2.6169638960101165
3.8972165894487603,0.0963836247051878,1.3803992413162083,0.03869666838578712,-0.018054126827229948,0.011496056604851654,0.6050259355388061,2.6169638960101165
3.9359132578345473,0.07832949787795784,1.39189529792106,0.03869666838578712,-0.018054126827229948,0.011496056604851654,0.6139243881719674,2.6169638960101165
3.9746099262203343,0.060275371050727895,1.4033913545259116,0.03869666838578712,-0.018054126827229948,0.011496056604851654,0.6138399085190902,2.6169638960101165
4.013306594606122,0.04222124422349795,1.4148874111307632,0.03869666838578712,-0.018054126827229948,0.011496056604851654,0.6099142433286492,2.6169638960101165
4.052003262991909,0.024167117396268,1.4263834677356149,0.03869666838578712,-0.018054126827229948,0.011496056604851654,0.6177522480984017,2.6169638960101165
4.090699931377697,0.0061129905690380515,1.4378795243404665,0.03869666838578712,-0.018054126827229948,0.011496056604851654,0.6179443820568511,2.6169638960101165
4.129396599763484,-0.011941136258191896,1.4493755809453182,0.03869666838578712,-0.018054126827229948,0.011496056604851654,0.6183347651873053,2.6169638960101165
4.1680932681492715,-0.029995263085421844,1.4608716375501698,0.03869666838578712,-0.018054126827229948,0.011496056604851654,0.6216069796968718,2.6169638960101165
4.206789936535059,-0.04804938991265179,1.4723676941550214,0.03869666838578712,-0.018054126827229948,0.011496056604851654,0.6226835359679138,2.6169638960101165
4.245486604920846,-0.06610351673988174,1.483863750759873,0.03869666838578712,-0.018054126827229948,0.011496056604851654,0.6237469868477685,2.6169638960101165
4.284183273306634,-0.0841576435671117,1.4953598073647247,0.03869666838578712,-0.018054126827229948,0.011496056604851654,0.611963460546914,2.6169638960101165
4.322879941692421,-0.10221177039434165,1.5068558639695764,0.03869666838578712,-0.018054126827229948,0.011496056604851654,0.603238075206755,2.6169638960101165
4.361576610078209,-0.1202658972215716,1.518351920574428,0.03869666838578712,-0.018054126827229948,0.011496056604851654,0.6042919299719032,2.6169638960101165
4.400273278463996,-0.13832002404880156,1.5298479771792797,0.03869666838578712,-0.018054126827229948,0.011496056604851654,0.6063266316245673,2.6169638960101165
4.438969946849784,-0.15637415087603151,1.5413440337841313,0.03869666838578712,-0.018054126827229948,0.011496056604851654,0.6068044480873444,2.6169638960101165
4.477666615235571,-0.17442827770326147,1.552840090388983,0.03869666838578712,-0.018054126827229948,0.011496056604851654,0.6092546065180526,2.6169638960101165
4.5163632836213585,-0.19248240453049142,1.5643361469938346,0.03869666838578712,-0.018054126827229948,0.011496056604851654,0.6087083993767615,2.6169638960101165
4.555059952007146,-0.21053653135772138,1.5758322035986863,0.03869666838578712,-0.018054126827229948,0.011496056604851654,0.6144149885346007,2.6169638960101165
4.593756620392933,-0.22859065818495133,1.587328260203538,0.03869666838578712,-0.018054126827229948,0.011496056604851654,0.6152938324173396,2.6169638960101165
4.632453288778721,-0.2466447850121813,1.5988243168083895,0.03869666838578712,-0.018054126827229948,0.011496056604851654,0.6120266945900575,2.6169638960101165
4.671149957164508,-0.26469891183941124,1.6103203734132412,0.03869666838578712,-0.018054126827229948,0.011496056604851654,0.6133998304294922,2.6169638960101165
4.709846625550296,-0.2827530386666412,1.6218164300180928,0.03869666838578712,-0.018054126827229948,0.011496056604851654,0.6161400728109314,2.6169638960101165
4.748543293936083,-0.30080716549387115,1.6333124866229445,0.03869666838578712,-0.018054126827229948,0.011496056604851654,0.6046538698152176,2.6169638960101165
4.787239962321871,-0.3188612923211011,1.6448085432277961,0.03869666838578712,-0.018054126827229948,0.011496056604851654,0.5966609786773684,2.6169638960101165
4.825936630707658,-0.33691541914833106,1.6563045998326478,0.03869666838578712,-0.018054126827229948,0.011496056604851654,0.5945353412994082,2.6169638960101165
4.8646332990934456,-0.354969545975561,1.6678006564374994,0.03869666838578712,-0.018054126827229948,0.011496056604851654,0.5928022407934472,2.6169638960101165
4.83807702904413,-0.35735220107549626,1.7197376192423255,-0.02655627004931556,-0.002382655099935236,0.051936962804826174,0.5884699401322452,2.6169638960101165
4.811520758994814,-0.3597348561754315,1.7716745820471516,-0.02655627004931556,-0.002382655099935236,0.051936962804826174,0.5930063512774394,2.6169638960101165
4.784964488945499,-0.36211751127536673,1.8236115448519776,-0.02655627004931556,-0.002382655099935236,0.051936962804826174,0.5921961266324741,2.6169638960101165
4.758408218896183,-0.36450016637530197,1.8755485076568037,-0.02655627004931556,-0.002382655099935236,0.051936962804826174,0.5908009067379666,2.6169638960101165
4.7318519488468676,-0.3668828214752372,1.9274854704616298,-0.02655627004931556,-0.002382655099935236,0.051936962804826174,0.5851674517598395,2.6169638960101165
4.705295678797552,-0.36926547657517245,1.9794224332664558,-0.02655627004931556,-0.002382655099935236,0.051936962804826174,0.5877686142006179,2.6169638960101165
4.678739408748236,-0.3716481316751077,2.031359396071282,-0.02655627004931556,-0.002382655099935236,0.051936962804826174,0.5922598048701749,2.6169638960101165
4.652183138698921,-0.3740307867750429,2.083296358876108,-0.02655627004931556,-0.002382655099935236,0.051936962804826174,0.5961755985220665,2.6210896164237414
4.625626868649605,-0.37641344187497816,2.1352333216809343,-0.02655627004931556,-0.002382655099935236,0.051936962804826174,0.5995875408965785,2.607075996740075
4.5990705986002896,-0.3787960969749134,2.1871702844857603,-0.02655627004931556,-0.002382655099935236,0.051936962804826174,0.5956555253371778,2.6037952178536075
4.572514328550974,-0.38117875207484864,2.2391072472905864,-0.02655627004931556,-0.002382655099935236,0.051936962804826174,0.5948466335375546,2.629273124964496
4.545958058501658,-0.3835614071747839,2.2910442100954125,-0.02655627004931556,-0.002382655099935236,0.051936962804826174,0.5892619610519649,2.62525935683395
4.519401788452343,-0.3859440622747191,2.3429811729002386,-0.02655627004931556,-0.002382655099935236,0.051936962804826174,0.5938164750162255,2.6114751102295033
4.492845518403027,-0.38832671737465435,2.3949181357050646,-0.02655627004931556,-0.002382655099935236,0.051936962804826174,0.5929541968152737,2.6033469866393073
4.4662892483537115,-0.3907093724745896,2.4468550985098907,-0.02655627004931556,-0.002382655099935236,0.051936962804826174,0.5877600855857428,2.602188094527872
4.439732978304396,-0.3930920275745248,2.4987920613147168,-0.02655627004931556,-0.002382655099935236,0.051936962804826174,0.5869794721209757,2.611137268534357
4.41317670825508,-0.39547468267446007,2.550729024119543,-0.02655627004931556,-0.002382655099935236,0.051936962804826174,0.5840770431770183,2.6212934424697822
4.386620438205765,-0.3978573377743953,2.602665986924369,-0.02655627004931556,-0.002382655099935236,0.051936962804826174,0.5913917665261696,2.6212977291487256
4.360064168156449,-0.40023999287433054,2.654602949729195,-0.02655627004931556,-0.002382655099935236,0.051936962804826174,0.5995206354385104,2.6187819624519446
4.3335078981071335,-0.4026226479742658,2.706539912534021,-0.02655627004931556,-0.002382655099935236,0.051936962804826174,0.5976601355912451,2.623467280753118
4.306951628057818,-0.405005303074201,2.758476875338847,-0.02655627004931556,-0.002382655099935236,0.051936962804826174,0.6004772787598079,2.6186248732530677
4.280395358008502,-0.40738795817413626,2.810413838143673,-0.02655627004931556,-0.002382655099935236,0.051936962804826174,0.5981020368907649,2.6216555041178005
4.253839087959187,-0.4097706132740715,2.8623508009484993,-0.02655627004931556,-0.002382655099935236,0.051936962804826174,0.5933948564461946,2.635420178441953
4.227282817909871,-0.41215326837400673,2.9142877637533253,-0.02655627004931556,-0.002382655099935236,0.051936962804826174,0.6005349755500019,2.607661539020816
4.2007265478605555,-0.41453592347394197,2.9662247265581514,-0.02655627004931556,-0.002382655099935236,0.051936962804826174,0.5989328658075904,2.6051542627552826
4.17417027781124,-0.4169185785738772,3.0181616893629775,-0.02655627004931556,-0.002382655099935236,0.051936962804826174,0.5932464294330377,2.6019908930038964
4.147614007761924,-0.41930123367381245,3.0700986521678035,-0.02655627004931556,-0.002382655099935236,0.051936962804826174,0.5902093929333002,2.6038394331430137
4.121057737712609,-0.4216838887737477,3.1220356149726296,-0.02655627004931556,-0.002382655099935236,0.051936962804826174,0.590427300680509,2.5975396607142733
4.094501467663293,-0.4240665438736829,3.1739725777774557,-0.02655627004931556,-0.002382655099935236,0.051936962804826174,0.5910276957601269,2.591323189532153
4.0679451976139775,-0.42644919897361816,3.2259095405822817,-0.02655627004931556,-0.002382655099935236,0.051936962804826174,0.5814462431604732,2.588171568367826
4.041388927564662,-0.4288318540735534,3.277846503387108,-0.02655627004931556,-0.002382655099935236,0.051936962804826174,0.5705970749970871,2.587873444419118
4.014832657515346,-0.43121450917348864,3.329783466191934,-0.02655627004931556,-0.002382655099935236,0.051936962804826174,0.5708837888251412,2.5984850481641457
3.9882763874660307,-0.4335971642734239,3.38172042899676,-0.02655627004931556,-0.002382655099935236,0.051936962804826174,0.5792772873317008,2.606769606411114
3.961720117416715,-0.4359798193733591,3.433657391801586,-0.02655627004931556,-0.002382655099935236,0.051936962804826174,0.5774634591022754,2.586643476438743
3.9351638473673995,-0.43836247447329435,3.485594354606412,-0.02655627004931556,-0.002382655099935236,0.051936962804826174,0.5804949583810969,2.572720432002101
3.908607577318084,-0.4407451295732296,3.537531317411238,-0.02655627004931556,-0.002382655099935236,0.051936962804826174,0.5788989235122344,2.5615581962608536
3.8820513072687683,-0.4431277846731648,3.5894682802160642,-0.02655627004931556,-0.002382655099935236,0.051936962804826174,0.572054632124886,2.5576356042325075
3.8554950372194527,-0.44551043977310006,3.6414052430208903,-0.02655627004931556,-0.002382655099935236,0.051936962804826174,0.5665190500580713,2.542042680301442
3.828938767170137,-0.4478930948730353,3.6933422058257164,-0.02655627004931556,-0.002382655099935236,0.051936962804826174,0.5646901967521476,2.5299906165603385
3.8023824971208215,-0.45027574997297054,3.7452791686305424,-0.02655627004931556,-0.002382655099935236,0.051936962804826174,0.5611064746044221,2.517025112089457
3.775826227071506,-0.4526584050729058,3.7972161314353685,-0.02655627004931556,-0.002382655099935236,0.051936962804826174,0.5604429594946971,2.525043163128332
3.7492699570221903,-0.455041060172841,3.8491530942401946,-0.02655627004931556,-0.002382655099935236,0.051936962804826174,0.5558048838983481,2.5238753853628015
3.7227136869728747,-0.45742371527277625,3.9010900570450207,-0.02655627004931556,-0.002382655099935236,0.051936962804826174,0.5574561177643825,2.534741280579695
3.696157416923559,-0.4598063703727115,3.9530270198498467,-0.02655627004931556,-0.002382655099935236,0.051936962804826174,0.5563803821076241,2.5121576419132037
3.6696011468742435,-0.46218902547264673,4.004963982654673,-0.02655627004931556,-0.002382655099935236,0.051936962804826174,0.5640575128895572,2.5103467444035905
3.643044876824928,-0.46457168057258197,4.0569009454595,-0.02655627004931556,-0.002382655099935236,0.051936962804826174,0.5573293982170092,2.5113741114422345
3.6164886067756123,-0.4669543356725172,4.108837908264326,-0.02655627004931556,-0.002382655099935236,0.051936962804826174,0.5558196557927678,2.491075354596358
3.5899323367262967,-0.46933699077245244,4.160774871069153,-0.02655627004931556,-0.002382655099935236,0.051936962804826174,0.5584189547070507,2.491423323870357
3.563376066676981,-0.4717196458723877,4.212711833873979,-0.02655627004931556,-0.002382655099935236,0.051936962804826174,0.5668194292004698,2.4977251216622003
3.5368197966276655,-0.4741023009723229,4.264648796678806,-0.02655627004931556,-0.002382655099935236,0.051936962804826174,0.5648179297792565,2.499506892236764
3.51026352657835,-0.47648495607225816,4.316585759483632,-0.02655627004931556,-0.002382655099935236,0.051936962804826174,0.5695756332052506,2.5046454519990804
3.4837072565290343,-0.4788676111721934,4.368522722288459,-0.02655627004931556,-0.002382655099935236,0.051936962804826174,0.5719167028640592,2.5002326838546947
3.4571509864797187,-0.48125026627212864,4.420459685093285,-0.02655627004931556,-0.002382655099935236,0.051936962804826174,0.5670982421657051,2.4923181417719564
3.430594716430403,-0.4836329213720639,4.472396647898112,-0.02655627004931556,-0.002382655099935236,0.051936962804826174,0.5645498928089433,2.4857671267851305
3.4040384463810875,-0.4860155764719991,4.524333610702938,-0.02655627004931556,-0.002382655099935236,0.051936962804826174,0.5688155629949729,2.493909733939915
3.377482176331772,-0.48839823157193435,4.576270573507765,-0.02655627004931556,-0.002382655099935236,0.051936962804826174,0.5645037425561522,2.490062411725113
3.3509259062824563,-0.4907808866718696,4.628207536312591,-0.02655627004931556,-0.002382655099935236,0.051936962804826174,0.5631301015311202,2.482283387376367
3.3243696362331407,-0.4931635417718048,4.680144499117418,-0.02655627004931556,-0.002382655099935236,0.051936962804826174,0.5588796336998897,2.486388243289869
3.297813366183825,-0.49554619687174006,4.732081461922244,-0.02655627004931556,-0.002382655099935236,0.051936962804826174,0.5604041854143584,2.4980344045839473
3.2712570961345095,-0.4979288519716753,4.784018424727071,-0.02655627004931556,-0.002382655099935236,0.051936962804826174,0.5616050026607918,2.496903375245126
3.244700826085194,-0.5003115070716105,4.8359553875318975,-0.02655627004931556,-0.002382655099935236,0.051936962804826174,0.5537612009827354,2.4934796195586912
3.2181445560358783,-0.5026941621715457,4.887892350336724,-0.02655627004931556,-0.002382655099935236,0.051936962804826174,0.5557693361904695,2.5001984971809974
3.1915882859865627,-0.5050768172714809,4.9398293131415505,-0.02655627004931556,-0.002382655099935236,0.051936962804826174,0.5481616963666783,2.5128192366935105
3.165032015937247,-0.5074594723714161,4.991766275946377,-0.02655627004931556,-0.002382655099935236,0.051936962804826174,0.5509800986539666,2.5085759663906817
3.1384757458879315,-0.5098421274713513,5.0437032387512035,-0.02655627004931556,-0.002382655099935236,0.051936962804826174,0.5437707585898947,2.5057619240081728
3.111919475838616,-0.5122247825712865,5.09564020155603,-0.02655627004931556,-0.002382655099935236,0.051936962804826174,0.5466105921102976,2.537967581008651
3.0853632057893003,-0.5146074376712216,5.1475771643608565,-0.02655627004931556,-0.002382655099935236,0.051936962804826174,0.5436868478538383,2.5293413835678042
3.0588069357399847,-0.5169900927711568,5.199514127165683,-0.02655627004931556,-0.002382655099935236,0.051936962804826174,0.5361157737357611,2.5261343272451695
3.032250665690669,-0.519372747871092,5.25145108997051,-0.02655627004931556,-0.002382655099935236,0.051936962804826174,0.5288456700181515,2.5119383293870254
3.0056943956413535,-0.5217554029710272,5.303388052775336,-0.02655627004931556,-0.002382655099935236,0.051936962804826174,0.5301342524804841,2.514074184222146
2.979138125592038,-0.5241380580709624,5.355325015580163,-0.02655627004931556,-0.002382655099935236,0.051936962804826174,0.5338090876627211,2.511282303398576
2.9525818555427223,-0.5265207131708975,5.407261978384989,-0.02655627004931556,-0.002382655099935236,0.051936962804826174,0.5391439217187955,2.5203853677131596
2.9659563765252996,-0.5245868826170099,5.347429965296347,0.013374520982577288,0.001933830553887652,-0.05983201308864202,0.5415449825269015,2.521392420552221
2.979330897507877,-0.5226530520631223,5.287597952207705,0.013374520982577288,0.001933830553887652,-0.05983201308864202,0.5469196719590169,2.528989805787188
2.9927054184904542,-0.5207192215092347,5.227765939119062,0.013374520982577288,0.001933830553887652,-0.05983201308864202,0.5542149349996202,2.5306469507269487
3.0060799394730315,-0.518785390955347,5.16793392603042,0.013374520982577288,0.001933830553887652,-0.05983201308864202,0.5515832288254977,2.52011018062718
3.019454460455609,-0.5168515604014594,5.108101912941778,0.013374520982577288,0.001933830553887652,-0.05983201308864202,0.5556520071181811,2.5153636161736235
3.032828981438186,-0.5149177298475718,5.0482698998531355,0.013374520982577288,0.001933830553887652,-0.05983201308864202,0.5470953926371821,2.4952685418183322
3.0462035024207634,-0.5129838992936842,4.988437886764493,0.013374520982577288,0.001933830553887652,-0.05983201308864202,0.5450244801060952,2.485843949597168
3.0595780234033407,-0.5110500687397965,4.928605873675851,0.013374520982577288,0.001933830553887652,-0.05983201308864202,0.5474670434590653,2.4819007000619404
3.072952544385918,-0.5091162381859089,4.868773860587209,0.013374520982577288,0.001933830553887652,-0.05983201308864202,0.5479881232398226,2.4787244045315227
3.0863270653684953,-0.5071824076320213,4.808941847498566,0.013374520982577288,0.001933830553887652,-0.05983201308864202,0.5441692328431262,2.4676319912195495
3.0997015863510726,-0.5052485770781336,4.749109834409924,0.013374520982577288,0.001933830553887652,-0.05983201308864202,0.5471381304852456,2.4829794376866876
3.11307610733365,-0.503314746524246,4.689277821321282,0.013374520982577288,0.001933830553887652,-0.05983201308864202,0.5461033075843004,2.475327061099342
3.126450628316227,-0.5013809159703584,4.6294458082326395,0.013374520982577288,0.001933830553887652,-0.05983201308864202,0.5485755595492913,2.471170404728119
3.1398251492988045,-0.49944708541647076,4.569613795143997,0.013374520982577288,0.001933830553887652,-0.05983201308864202,0.5423677250490156,2.4712464851275864
3.153199670281382,-0.49751325486258313,4.509781782055355,0.013374520982577288,0.001933830553887652,-0.05983201308864202,0.5433455703904668,2.4653016468391464
3.166574191263959,-0.4955794243086955,4.449949768966713,0.013374520982577288,0.001933830553887652,-0.05983201308864202,0.5435323645501691,2.460836787948487
3.1799487122465364,-0.4936455937548079,4.39011775587807,0.013374520982577288,0.001933830553887652,-0.05983201308864202,0.5495791853303107,2.4699894689003603
3.1933232332291137,-0.49171176320092025,4.330285742789428,0.013374520982577288,0.001933830553887652,-0.05983201308864202,0.5540275181839289,2.485773733850532
3.206697754211691,-0.4897779326470326,4.270453729700786,0.013374520982577288,0.001933830553887652,-0.05983201308864202,0.553155160833754,2.48831556052996
3.2200722751942683,-0.487844102093145,4.210621716612144,0.013374520982577288,0.001933830553887652,-0.05983201308864202,0.552333089198451,2.494972354717005
3.2334467961768456,-0.48591027153925737,4.150789703523501,0.013374520982577288,0.001933830553887652,-0.05983201308864202,0.54585201848161,2.4847298298949507
3.246821317159423,-0.48397644098536974,4.090957690434859,0.013374520982577288,0.001933830553887652,-0.05983201308864202,0.5388682027719656,2.4696719354911996
3.260195838142,-0.4820426104314821,4.031125677346217,0.013374520982577288,0.001933830553887652,-0.05983201308864202,0.5361292680493436,2.4758832835107683
3.2735703591245775,-0.4801087798775945,3.971293664257575,0.013374520982577288,0.001933830553887652,-0.05983201308864202,0.5420862400289167,2.463783095697711
3.286944880107155,-0.47817494932370685,3.911461651168933,0.013374520982577288,0.001933830553887652,-0.05983201308864202,0.5456628961604265,2.472423230079993
3.300319401089732,-0.4762411187698192,3.8516296380802912,0.013374520982577288,0.001933830553887652,-0.05983201308864202,0.5595786527863323,2.459339938180751
3.3136939220723094,-0.4743072882159316,3.7917976249916494,0.013374520982577288,0.001933830553887652,-0.05983201308864202,0.5632115660964114,2.462747804338956
3.3270684430548867,-0.47237345766204397,3.7319656119030076,0.013374520982577288,0.001933830553887652,-0.05983201308864202,0.5669509216627416,2.4609902093720826
3.340442964037464,-0.47043962710815634,3.6721335988143657,0.013374520982577288,0.001933830553887652,-0.05983201308864202,0.562690705668894,2.4502509551850657
3.3538174850200413,-0.4685057965542687,3.612301585725724,0.013374520982577288,0.001933830553887652,-0.05983201308864202,0.5580364097411684,2.461009123859063
3.3671920060026186,-0.4665719660003811,3.552469572637082,0.013374520982577288,0.001933830553887652,-0.05983201308864202,0.5516354851401526,2.445961987233172
3.380566526985196,-0.46463813544649346,3.4926375595484402,0.013374520982577288,0.001933830553887652,-0.05983201308864202,0.5441728370156107,2.4400373008349696
3.393941047967773,-0.46270430489260583,3.4328055464597984,0.013374520982577288,0.001933830553887652,-0.05983201308864202,0.5507632786241297,2.444198887552975
3.4073155689503505,-0.4607704743387182,3.3729735333711566,0.013374520982577288,0.001933830553887652,-0.05983201308864202,0.5438160068943464,2.4457982106267044
3.420690089932928,-0.4588366437848306,3.3131415202825147,0.013374520982577288,0.001933830553887652,-0.05983201308864202,0.5365474361963449,2.445198176109389
3.434064610915505,-0.45690281323094295,3.253309507193873,0.013374520982577288,0.001933830553887652,-0.05983201308864202,0.5314170072910476,2.4492161141989723
3.4474391318980824,-0.4549689826770553,3.193477494105231,0.013374520982577288,0.001933830553887652,-0.05983201308864202,0.5238498213399335,2.4369997505434178
3.4608136528806597,-0.4530351521231677,3.1336454810165892,0.013374520982577288,0.001933830553887652,-0.05983201308864202,0.5207004528652565,2.450907051802411
3.474188173863237,-0.45110132156928007,3.0738134679279474,0.013374520982577288,0.001933830553887652,-0.05983201308864202,0.514387987142448,2.45448837230609
3.4875626948458143,-0.44916749101539244,3.0139814548393056,0.013374520982577288,0.001933830553887652,-0.05983201308864202,0.5232061155997261,2.443123550343264
3.5009372158283916,-0.4472336604615048,2.9541494417506637,0.013374520982577288,0.001933830553887652,-0.05983201308864202,0.5237451287118959,2.4578926625575024
3.514311736810969,-0.4452998299076172,2.894317428662022,0.013374520982577288,0.001933830553887652,-0.05983201308864202,0.5160550152930174,2.4489742290179324
3.527686257793546,-0.44336599935372956,2.83448541557338,0.013374520982577288,0.001933830553887652,-0.05983201308864202,0.5134110125333523,2.463683408481119
3.5410607787761235,-0.44143216879984193,2.7746534024847382,0.013374520982577288,0.001933830553887652,-0.05983201308864202,0.5086624934484235,2.457180268957374
3.5544352997587008,-0.4394983382459543,2.7148213893960964,0.013374520982577288,0.001933830553887652,-0.05983201308864202,0.5004408554717419,2.4544217786956697
3.567809820741278,-0.4375645076920667,2.6549893763074546,0.013374520982577288,0.001933830553887652,-0.05983201308864202,0.49609340318637085,2.442696782926972
3.5811843417238554,-0.43563067713817905,2.5951573632188127,0.013374520982577288,0.001933830553887652,-0.05983201308864202,0.4949677670945713,2.435989280416809
3.5945588627064327,-0.4336968465842914,2.535325350130171,0.013374520982577288,0.001933830553887652,-0.05983201308864202,0.49462822660932354,2.4282472223448597
3.60793338368901,-0.4317630160304038,2.475493337041529,0.013374520982577288,0.001933830553887652,-0.05983201308864202,0.49670132754181484,2.420726461484549
3.6213079046715873,-0.42982918547651616,2.4156613239528872,0.013374520982577288,0.001933830553887652,-0.05983201308864202,0.49342903859487536,2.408967911696204
3.6346824256541646,-0.42789535492262853,2.3558293108642454,0.013374520982577288,0.001933830553887652,-0.05983201308864202,0.49035498782317577,2.4238109728282438
3.648056946636742,-0.4259615243687409,2.2959972977756036,0.013374520982577288,0.001933830553887652,-0.05983201308864202,0.489840602891343,2.419733300318363
3.661431467619319,-0.4240276938148533,2.2361652846869617,0.013374520982577288,0.001933830553887652,-0.05983201308864202,0.4976556168813637,2.4179201600030953
3.6748059886018964,-0.42209386326096565,2.17633327159832,0.013374520982577288,0.001933830553887652,-0.05983201308864202,0.5004015436026461,2.415842078428091
3.6881805095844737,-0.420160032707078,2.116501258509678,0.013374520982577288,0.001933830553887652,-0.05983201308864202,0.4990690807405732,2.3966592190280465
3.701555030567051,-0.4182262021531904,2.0566692454210362,0.013374520982577288,0.001933830553887652,-0.05983201308864202,0.5083699495681053,2.4000830272471894
3.7149295515496283,-0.41629237159930277,1.9968372323323942,0.013374520982577288,0.001933830553887652,-0.05983201308864202,0.5035605820844953,2.405050662436228
3.7283040725322056,-0.41435854104541514,1.9370052192437521,0.013374520982577288,0.001933830553887652,-0.05983201308864202,0.5074477269467438,2.390559807354441
3.741678593514783,-0.4124247104915275,1.87717320615511,0.013374520982577288,0.001933830553887652,-0.05983201308864202,0.507482589328274,2.3820229426238035
3.7550531144973602,-0.4104908799376399,1.817341193066468,0.013374520982577288,0.001933830553887652,-0.05983201308864202,0.5019553632307048,2.3817083526526934
3.7684276354799375,-0.40855704938375226,1.757509179977826,0.013374520982577288,0.001933830553887652,-0.05983201308864202,0.5052460939103334,2.373482400231152
3.781802156462515,-0.40662321882986463,1.697677166889184,0.013374520982577288,0.001933830553887652,-0.05983201308864202,0.5033360322716431,2.364932153724843
3.795176677445092,-0.404689388275977,1.6378451538005419,0.013374520982577288,0.001933830553887652,-0.05983201308864202,0.5070475598757838,2.369842299648598
3.8085511984276694,-0.4027555577220894,1.5780131407118998,0.013374520982577288,0.001933830553887652,-0.05983201308864202,0.5000552191378584,2.3718634190687107
3.8219257194102467,-0.40082172716820175,1.5181811276232577,0.013374520982577288,0.001933830553887652,-0.05983201308864202,0.49593599987606496,2.365435334809327
3.835300240392824,-0.3988878966143141,1.4583491145346157,0.013374520982577288,0.001933830553887652,-0.05983201308864202,0.4965040847310118,2.3907533659628646
3.8486747613754013,-0.3969540660604265,1.3985171014459736,0.013374520982577288,0.001933830553887652,-0.05983201308864202,0.5223171887621058,2.396954567927938
3.8620492823579786,-0.39502023550653886,1.3386850883573316,0.013374520982577288,0.001933830553887652,-0.05983201308864202,0.5223171887621058,2.408301309700597
3.875423803340556,-0.39308640495265124,1.2788530752686895,0.013374520982577288,0.001933830553887652,-0.05983201308864202,0.524427734083875,2.410765694004752
3.888798324323133,-0.3911525743987636,1.2190210621800475,0.013374520982577288,0.001933830553887652,-0.05983201308864202,0.5451175028731546,2.4261232648175843
3.9021728453057105,-0.389218743844876,1.1591890490914054,0.013374520982577288,0.001933830553887652,-0.05983201308864202,0.5443896114798707,2.4363598319838022
3.915547366288288,-0.38728491329098835,1.0993570360027634,0.013374520982577288,0.001933830553887652,-0.05983201308864202,0.5678982778873758,2.43199334723318
3.928921887270865,-0.3853510827371007,1.0395250229141213,0.013374520982577288,0.001933830553887652,-0.05983201308864202,0.5678982778873758,2.42869246659716
3.929516991524704,-0.39245367131499126,1.0189763045866451,0.0005951042538391282,-0.0071025885778905435,-0.020548718327476234,0.5630522070650962,2.426693433321244
3.9370389672899226,-0.3937146567387018,1.029829914904937,0.0075219757652186985,-0.0012609854237105814,0.010853610318291834,0.5774465234843709,2.414790210472888
3.944560943055141,-0.3949756421624124,1.040683525223229,0.0075219757652186985,-0.0012609854237105814,0.010853610318291834,0.6048275059791428,2.426097472586445
3.9520829188203597,-0.39623662758612294,1.0515371355415208,0.0075219757652186985,-0.0012609854237105814,0.010853610318291834,0.6005898609418517,2.436221576042563
3.959604894585578,-0.3974976130098335,1.0623907458598127,0.0075219757652186985,-0.0012609854237105814,0.010853610318291834,0.5925221514958378,2.4273444175491075
3.9671268703507967,-0.39875859843354405,1.0732443561781047,0.0075219757652186985,-0.0012609854237105814,0.010853610318291834,0.6016256930550355,2.410737822744253
3.974648846116015,-0.4000195838572546,1.0840979664963966,0.0075219757652186985,-0.0012609854237105814,0.010853610318291834,0.5954206455354786,2.4109971928094107
3.9821708218812337,-0.40128056928096517,1.0949515768146885,0.0075219757652186985,-0.0012609854237105814,0.010853610318291834,0.6040101730335461,2.395356680836799
3.9896927976464522,-0.40254155470467573,1.1058051871329804,0.0075219757652186985,-0.0012609854237105814,0.010853610318291834,0.6040101730335461,2.3987918912432993
3.9972147734116708,-0.4038025401283863,1.1166587974512723,0.0075219757652186985,-0.0012609854237105814,0.010853610318291834,0.6023917069153203,2.3892121213577955
4.00473674917689,-0.40506352555209685,1.1275124077695642,0.0075219757652186985,-0.0012609854237105814,0.010853610318291834,0.6015152677332672,2.39554171863037
4.012258724942108,-0.4063245109758074,1.138366018087856,0.0075219757652186985,-0.0012609854237105814,0.010853610318291834,0.5946576234499827,2.432366326763522
4.019780700707327,-0.40758549639951797,1.149219628406148,0.0075219757652186985,-0.0012609854237105814,0.010853610318291834,0.5931148652231988,2.4821329934898233
4.027302676472545,-0.4088464818232285,1.16007323872444,0.0075219757652186985,-0.0012609854237105814,0.010853610318291834,0.6002515055870874,2.5325778520456477
4.034824652237764,-0.4101074672469391,1.1709268490427318,0.0075219757652186985,-0.0012609854237105814,0.010853610318291834,0.6002515055870874,2.583705492234196
4.042346628002982,-0.41136845267064964,1.1817804593610237,0.0075219757652186985,-0.0012609854237105814,0.010853610318291834,0.6002515055870874,2.6014231209133616
4.049868603768201,-0.4126294380943602,1.1926340696793156,0.0075219757652186985,-0.0012609854237105814,0.010853610318291834,0.5919828922371573,2.6014231209133616
4.057390579533419,-0.41389042351807076,1.2034876799976075,0.0075219757652186985,-0.0012609854237105814,0.010853610318291834,0.5919828922371573,2.6014231209133616
4.064912555298638,-0.4151514089417813,1.2143412903158994,0.0075219757652186985,-0.0012609854237105814,0.010853610318291834,0.5919828922371573,2.6014231209133616
4.072434531063856,-0.4164123943654919,1.2251949006341913,0.0075219757652186985,-0.0012609854237105814,0.010853610318291834,0.6099197388317423,2.6014231209133616
4.079956506829075,-0.41767337978920244,1.2360485109524832,0.0075219757652186985,-0.0012609854237105814,0.010853610318291834,0.6057947275981406,2.6014231209133616
4.087478482594293,-0.418934365212913,1.2469021212707752,0.0075219757652186985,-0.0012609854237105814,0.010853610318291834,0.6057947275981406,2.6014231209133616
4.095000458359512,-0.42019535063662355,1.257755731589067,0.0075219757652186985,-0.0012609854237105814,0.010853610318291834,0.6057947275981406,2.6014231209133616
4.10252243412473,-0.4214563360603341,1.268609341907359,0.0075219757652186985,-0.0012609854237105814,0.010853610318291834,0.6057947275981406,2.6014231209133616
4.110044409889949,-0.4227173214840447,1.2794629522256509,0.0075219757652186985,-0.0012609854237105814,0.010853610318291834,0.6057947275981406,2.6014231209133616
4.117566385655167,-0.42397830690775523,1.2903165625439428,0.0075219757652186985,-0.0012609854237105814,0.010853610318291834,0.6057947275981406,2.6014231209133616
4.125088361420386,-0.4252392923314658,1.3011701728622347,0.0075219757652186985,-0.0012609854237105814,0.010853610318291834,0.6057947275981406,2.6172606108400265
4.132610337185604,-0.42650027775517635,1.3120237831805266,0.0075219757652186985,-0.0012609854237105814,0.010853610318291834,0.6057947275981406,2.618306149149139
4.140132312950823,-0.4277612631788869,1.3228773934988185,0.0075219757652186985,-0.0012609854237105814,0.010853610318291834,0.6057947275981406,2.6237117661822658
4.1476542887160415,-0.42902224860259747,1.3337310038171104,0.0075219757652186985,-0.0012609854237105814,0.010853610318291834,0.6057947275981406,2.625908548342735
4.15517626448126,-0.430283234026308,1.3445846141354023,0.0075219757652186985,-0.0012609854237105814,0.010853610318291834,0.6057947275981406,2.6218355786622936
4.1626982402464785,-0.4315442194500186,1.3554382244536942,0.0075219757652186985,-0.0012609854237105814,0.010853610318291834,0.6066492924148401,2.610890572577776
4.170220216011697,-0.43280520487372914,1.3662918347719861,0.0075219757652186985,-0.0012609854237105814,0.010853610318291834,0.6033162688457033,2.6163379196194825
4.1777421917769155,-0.4340661902974397,1.377145445090278,0.0075219757652186985,-0.0012609854237105814,0.010853610318291834,0.5939486230718981,2.6159677991879415
4.185264167542134,-0.43532717572115026,1.38799905540857,0.0075219757652186985,-0.0012609854237105814,0.010853610318291834,0.6042642852974899,2.6065412487527966
4.1927861433073526,-0.4365881611448608,1.3988526657268618,0.0075219757652186985,-0.0012609854237105814,0.010853610318291834,0.5965846353310241,2.622988417534955
4.200308119072571,-0.4378491465685714,1.4097062760451537,0.0075219757652186985,-0.0012609854237105814,0.010853610318291834,0.5992821545380512,2.619996678703375
4.20783009483779,-0.43911013199228194,1.4205598863634457,0.0075219757652186985,-0.0012609854237105814,0.010853610318291834,0.5843356913630886,2.613736135442849
4.215352070603008,-0.4403711174159925,1.4314134966817376,0.0075219757652186985,-0.0012609854237105814,0.010853610318291834,0.5789483031502669,2.6248499373101737
4.222874046368227,-0.44163210283970306,1.4422671070000295,0.0075219757652186985,-0.0012609854237105814,0.010853610318291834,0.5789483031502669,2.628791747809448
4.211009453123228,-0.43712662666709956,1.514224602966966,-0.011864593244999305,0.004505476172603474,0.07195749596693654,0.5789483031502669,2.6297212752144015
4.199144859878229,-0.43262115049449607,1.5861820989339024,-0.011864593244999305,0.004505476172603474,0.07195749596693654,0.5789483031502669,2.6132921549327706
4.18728026663323,-0.42811567432189257,1.6581395949008388,-0.011864593244999305,0.004505476172603474,0.07195749596693654,0.5789483031502669,2.6246886927670747
4.175415673388231,-0.4236101981492891,1.7300970908677753,-0.011864593244999305,0.004505476172603474,0.07195749596693654,0.5789483031502669,2.6123311167337424
4.163551080143232,-0.4191047219766856,1.8020545868347118,-0.011864593244999305,0.004505476172603474,0.07195749596693654,0.5789483031502669,2.6238790334778206
4.151686486898233,-0.4145992458040821,1.8740120828016482,-0.011864593244999305,0.004505476172603474,0.07195749596693654,0.5789483031502669,2.6218162794572395
4.139821893653234,-0.4100937696314786,1.9459695787685847,-0.011864593244999305,0.004505476172603474,0.07195749596693654,0.5789483031502669,2.6195325002505916
4.127957300408235,-0.4055882934588751,2.017927074735521,-0.011864593244999305,0.004505476172603474,0.07195749596693654,0.5789483031502669,2.6166049783753342
4.116092707163236,-0.4010828172862716,2.089884570702458,-0.011864593244999305,0.004505476172603474,0.07195749596693654,0.5789483031502669,2.62492377416806
4.104228113918237,-0.3965773411136681,2.1618420666693945,-0.011864593244999305,0.004505476172603474,0.07195749596693654,0.5797550704990843,2.625147033368673
4.092363520673238,-0.3920718649410646,2.233799562636331,-0.011864593244999305,0.004505476172603474,0.07195749596693654,0.5767999181362076,2.63108586801594
4.080498927428239,-0.3875663887684611,2.305757058603268,-0.011864593244999305,0.004505476172603474,0.07195749596693654,0.5773008933307975,2.6271149083185814
4.06863433418324,-0.3830609125958576,2.3777145545702045,-0.011864593244999305,0.004505476172603474,0.07195749596693654,0.5827783283764285,2.616568095092199
4.056769740938241,-0.3785554364232541,2.449672050537141,-0.011864593244999305,0.004505476172603474,0.07195749596693654,0.5834790524449707,2.6173190544849954
4.044905147693242,-0.3740499602506506,2.521629546504078,-0.011864593244999305,0.004505476172603474,0.07195749596693654,0.58441610534191,2.6087422333026393
4.033040554448243,-0.36954448407804713,2.5935870424710146,-0.011864593244999305,0.004505476172603474,0.07195749596693654,0.5845975343891299,2.60513640543254
4.021175961203244,-0.36503900790544364,2.6655445384379512,-0.011864593244999305,0.004505476172603474,0.07195749596693654,0.5925959844506269,2.593943913244626
4.009311367958245,-0.36053353173284014,2.737502034404888,-0.011864593244999305,0.004505476172603474,0.07195749596693654,0.5841737142488762,2.6086264903834677
3.997446774713245,-0.35602805556023664,2.8094595303718246,-0.011864593244999305,0.004505476172603474,0.07195749596693654,0.5805291925970562,2.612912151959205
3.9855821814682457,-0.35152257938763315,2.8814170263387613,-0.011864593244999305,0.004505476172603474,0.07195749596693654,0.586372384258304,2.6119362315861747
3.9737175882232463,-0.34701710321502965,2.953374522305698,-0.011864593244999305,0.004505476172603474,0.07195749596693654,0.5891223410072717,2.6071387317354917
3.961852994978247,-0.34251162704242616,3.0253320182726346,-0.011864593244999305,0.004505476172603474,0.07195749596693654,0.5975293192113798,2.6196630428744
3.9499884017332474,-0.33800615086982266,3.0972895142395713,-0.011864593244999305,0.004505476172603474,0.07195749596693654,0.5923593008261988,2.626102934593275
3.938123808488248,-0.33350067469721917,3.169247010206508,-0.011864593244999305,0.004505476172603474,0.07195749596693654,0.5911150096305324,2.634528284729437
3.9262592152432485,-0.3289951985246157,3.2412045061734447,-0.011864593244999305,0.004505476172603474,0.07195749596693654,0.5852022794817856,2.6323572213956608
3.914394621998249,-0.3244897223520122,3.3131620021403814,-0.011864593244999305,0.004505476172603474,0.07195749596693654,0.5876722048711266,2.6370305215017233
3.9025300287532496,-0.3199842461794087,3.385119498107318,-0.011864593244999305,0.004505476172603474,0.07195749596693654,0.5932994641890708,2.6345535377596225
3.89066543550825,-0.3154787700068052,3.4570769940742547,-0.011864593244999305,0.004505476172603474,0.07195749596693654,0.5974432443164944,2.6424068548903206
3.8788008422632507,-0.3109732938342017,3.5290344900411914,-0.011864593244999305,0.004505476172603474,0.07195749596693654,0.6059821351032366,2.638927080358759
3.8669362490182513,-0.3064678176615982,3.600991986008128,-0.011864593244999305,0.004505476172603474,0.07195749596693654,0.6043347144214262,2.6297432892330814
3.855071655773252,-0.3019623414889947,3.6729494819750648,-0.011864593244999305,0.004505476172603474,0.07195749596693654,0.60854257449514,2.6294293423595967
3.8432070625282524,-0.2974568653163912,3.7449069779420014,-0.011864593244999305,0.004505476172603474,0.07195749596693654,0.6052783654372493,2.635578618762522
3.831342469283253,-0.2929513891437877,3.816864473908938,-0.011864593244999305,0.004505476172603474,0.07195749596693654,0.6116968358985727,2.648568514844682
3.8194778760382535,-0.2884459129711842,3.888821969875875,-0.011864593244999305,0.004505476172603474,0.07195749596693654,0.6128255040513297,2.638739012077633
3.807613282793254,-0.2839404367985807,3.9607794658428115,-0.011864593244999305,0.004505476172603474,0.07195749596693654,0.6036250401906899,2.6429865146974367
3.7957486895482546,-0.2794349606259772,4.032736961809748,-0.011864593244999305,0.004505476172603474,0.07195749596693654,0.6002335262918966,2.65881431087302
3.783884096303255,-0.27492948445337373,4.104694457776684,-0.011864593244999305,0.004505476172603474,0.07195749596693654,0.6074931004521862,2.647303876966785
3.7720195030582557,-0.27042400828077023,4.176651953743621,-0.011864593244999305,0.004505476172603474,0.07195749596693654,0.6031943766622524,2.651644925803123
3.7601549098132563,-0.26591853210816674,4.248609449710557,-0.011864593244999305,0.004505476172603474,0.07195749596693654,0.6051513593101182,2.655014947680121
3.748290316568257,-0.26141305593556324,4.320566945677493,-0.011864593244999305,0.004505476172603474,0.07195749596693654,0.6004847616391175,2.642653312518295
3.7364257233232574,-0.25690757976295975,4.392524441644429,-0.011864593244999305,0.004505476172603474,0.07195749596693654,0.5995194619425686,2.619375208933948
3.724561130078258,-0.25240210359035625,4.464481937611366,-0.011864593244999305,0.004505476172603474,0.07195749596693654,0.5887151261853083,2.6265909455301935
3.7126965368332585,-0.24789662741775279,4.536439433578302,-0.011864593244999305,0.004505476172603474,0.07195749596693654,0.5936050373956555,2.6444228829496046
3.700831943588259,-0.24339115124514932,4.608396929545238,-0.011864593244999305,0.004505476172603474,0.07195749596693654,0.5847325518761054,2.650498505158503
3.6889673503432596,-0.23888567507254585,4.680354425512174,-0.011864593244999305,0.004505476172603474,0.07195749596693654,0.5855671656793637,2.6658796196302204
3.67710275709826,-0.23438019889994238,4.7523119214791105,-0.011864593244999305,0.004505476172603474,0.07195749596693654,0.5855783735343304,2.658898762529654
3.6652381638532607,-0.22987472272733891,4.824269417446047,-0.011864593244999305,0.004505476172603474,0.07195749596693654,0.5902219277803806,2.656267875109732
3.6533735706082613,-0.22536924655473545,4.896226913412983,-0.011864593244999305,0.004505476172603474,0.07195749596693654,0.5962793035364102,2.6645925343254833
3.641508977363262,-0.22086377038213198,4.968184409379919,-0.011864593244999305,0.004505476172603474,0.07195749596693654,0.59440093985482,2.6564625645363447
3.6296443841182624,-0.2163582942095285,5.0401419053468555,-0.011864593244999305,0.004505476172603474,0.07195749596693654,0.595623007706867,2.6515068228976357
3.617779790873263,-0.21185281803692504,5.112099401313792,-0.011864593244999305,0.004505476172603474,0.07195749596693654,0.5966369641703143,2.644868912217835
3.6059151976282635,-0.20734734186432158,5.184056897280728,-0.011864593244999305,0.004505476172603474,0.07195749596693654,0.5901871605436778,2.6446976345212896
3.594050604383264,-0.2028418656917181,5.256014393247664,-0.011864593244999305,0.004505476172603474,0.07195749596693654,0.5942070075915605,2.635475596024879
3.5821860111382646,-0.19833638951911464,5.3279718892146,-0.011864593244999305,0.004505476172603474,0.07195749596693654,0.5884860581779504,2.632377296238244
3.570321417893265,-0.19383091334651117,5.399929385181537,-0.011864593244999305,0.004505476172603474,0.07195749596693654,0.5807420618745374,2.628225095304296
3.5584568246482657,-0.1893254371739077,5.471886881148473,-0.011864593244999305,0.004505476172603474,0.07195749596693654,0.5790018729400621,2.614131084825442
3.5465922314032663,-0.18481996100130424,5.543844377115409,-0.011864593244999305,0.004505476172603474,0.07195749596693654,0.5810951991699382,2.5956003966736887
3.534727638158267,-0.18031448482870077,5.615801873082345,-0.011864593244999305,0.004505476172603474,0.07195749596693654,0.5815950055887982,2.5994618096848674
3.5228630449132674,-0.1758090086560973,5.687759369049282,-0.011864593244999305,0.004505476172603474,0.07195749596693654,0.5701387399605161,2.5959579165173516
3.510998451668268,-0.17130353248349384,5.759716865016218,-0.011864593244999305,0.004505476172603474,0.07195749596693654,0.5735502773237207,2.5840176193480957
3.4991338584232685,-0.16679805631089037,5.831674360983154,-0.011864593244999305,0.004505476172603474,0.07195749596693654,0.5665294563047372,2.573741733436755
3.487269265178269,-0.1622925801382869,5.90363185695009,-0.011864593244999305,0.004505476172603474,0.07195749596693654,0.5665427625644471,2.5599277502954343
3.4754046719332696,-0.15778710396568343,5.9755893529170265,-0.011864593244999305,0.004505476172603474,0.07195749596693654,0.5628846068982201,2.556574942798543
3.440658189866242,-0.15060730207241285,6.034173310227888,-0.03474648206702765,0.007179801893270588,0.058583957310860954,0.5665950416192831,2.5404663251199855
3.405911707799214,-0.14342750017914227,6.092757267538749,-0.03474648206702765,0.007179801893270588,0.058583957310860954,0.5611819127646672,2.539297426892276
3.3711652257321862,-0.1362476982858717,6.15134122484961,-0.03474648206702765,0.007179801893270588,0.058583957310860954,0.5555767379030175,2.5417549021983454
3.3364187436651584,-0.1290678963926011,6.209925182160472,-0.03474648206702765,0.007179801893270588,0.058583957310860954,0.5460134066622307,2.5281141383227776
3.3016722615981307,-0.12188809449933052,6.268509139471333,-0.03474648206702765,0.007179801893270588,0.058583957310860954,0.5449770010964752,2.5496884807397486
3.266925779531103,-0.11470829260605994,6.327093096782194,-0.03474648206702765,0.007179801893270588,0.058583957310860954,0.5498863637856248,2.548180444126656
3.232179297464075,-0.10752849071278936,6.385677054093056,-0.03474648206702765,0.007179801893270588,0.058583957310860954,0.5455654231052597,2.5554281767377227
3.1764424793698773,-0.0968600840924909,6.4220356667924845,-0.05573681809419762,0.01066840662029846,0.03635861269942927,0.5416440912085738,2.5505973371398034
3.1207056612756796,-0.08619167747219245,6.458394279491913,-0.05573681809419762,0.01066840662029846,0.03635861269942927,0.5437303063261062,2.525151014248535
3.064968843181482,-0.07552327085189399,6.494752892191342,-0.05573681809419762,0.01066840662029846,0.03635861269942927,0.5447149012184204,2.530170916608996
3.009232025087284,-0.06485486423159553,6.531111504890771,-0.05573681809419762,0.01066840662029846,0.03635861269942927,0.5456935639841767,2.5196352506134527
2.9534952069930864,-0.054186457611297076,6.5674701175902,-0.05573681809419762,0.01066840662029846,0.03635861269942927,0.5464911403858566,2.5167164000792708
2.8977583888988887,-0.04351805099099862,6.603828730289629,-0.05573681809419762,0.01066840662029846,0.03635861269942927,0.5454089059460966,2.5216989459200514
2.842021570804691,-0.03284964437070016,6.640187342989058,-0.05573681809419762,0.01066840662029846,0.03635861269942927,0.5485624176366102,2.5039498997989456
2.7862847527104933,-0.022181237750401702,6.6765459556884865,-0.05573681809419762,0.01066840662029846,0.03635861269942927,0.5478746221505011,2.523322731406547
2.7305479346162955,-0.011512831130103242,6.712904568387915,-0.05573681809419762,0.01066840662029846,0.03635861269942927,0.5533544637429124,2.531042833839591
2.674811116522098,-0.0008444245098047816,6.749263181087344,-0.05573681809419762,0.01066840662029846,0.03635861269942927,0.5567457865573001,2.531524422585029
2.6190742984279,0.009823982110493679,6.785621793786773,-0.05573681809419762,0.01066840662029846,0.03635861269942927,0.5585810347671959,2.5460563021348888
2.5633374803337023,0.02049238873079214,6.821980406486202,-0.05573681809419762,0.01066840662029846,0.03635861269942927,0.5591431527140791,2.538358711528713
2.5076006622395046,0.0311607953510906,6.858339019185631,-0.05573681809419762,0.01066840662029846,0.03635861269942927,0.5572663682547272,2.526846333332132
2.451863844145307,0.04182920197138906,6.89469763188506,-0.05573681809419762,0.01066840662029846,0.03635861269942927,0.5640117479854226,2.536319581579547
2.396127026051109,0.05249760859168752,6.9310562445844885,-0.05573681809419762,0.01066840662029846,0.03635861269942927,0.5550033189945369,2.538237345915984
2.3403902079569114,0.06316601521198598,6.967414857283917,-0.05573681809419762,0.01066840662029846,0.03635861269942927,0.550152065149102,2.534513661770676
2.2846533898627137,0.07383442183228443,7.003773469983346,-0.05573681809419762,0.01066840662029846,0.03635861269942927,0.5510803060310212,2.5437527729114486
2.228916571768516,0.08450282845258289,7.040132082682775,-0.05573681809419762,0.01066840662029846,0.03635861269942927,0.5591726467193097,2.532951868198419
2.1731797536743183,0.09517123507288135,7.076490695382204,-0.05573681809419762,0.01066840662029846,0.03635861269942927,0.5580299752112731,2.516392786257656
2.1174429355801205,0.1058396416931798,7.112849308081633,-0.05573681809419762,0.01066840662029846,0.03635861269942927,0.5591481739308515,2.5215285842760324
2.061706117485923,0.11650804831347826,7.149207920781062,-0.05573681809419762,0.01066840662029846,0.03635861269942927,0.5652814938136289,2.5275954839352717
2.005969299391725,0.12717645493377672,7.185566533480491,-0.05573681809419762,0.01066840662029846,0.03635861269942927,0.5668239479149156,2.5220520651333693
1.9502324812975274,0.1378448615540752,7.221925146179919,-0.05573681809419762,0.01066840662029846,0.03635861269942927,0.566036999832927,2.525137513633429
1.8944956632033296,0.14851326817437366,7.258283758879348,-0.05573681809419762,0.01066840662029846,0.03635861269942927,0.5697215708331763,2.531092834425915
1.838758845109132,0.15918167479467213,7.294642371578777,-0.05573681809419762,0.01066840662029846,0.03635861269942927,0.5725789229196633,2.5377043881264765
1.7830220270149342,0.1698500814149706,7.331000984278206,-0.05573681809419762,0.01066840662029846,0.03635861269942927,0.5735708138883644,2.5421782246396845
1.7272852089207364,0.18051848803526907,7.367359596977635,-0.05573681809419762,0.01066840662029846,0.03635861269942927,0.57033004638731,2.5383776306370045
1.6715483908265387,0.19118689465556754,7.403718209677064,-0.05573681809419762,0.01066840662029846,0.03635861269942927,0.5618613335405079,2.525163693068474
1.615811572732341,0.201855301275866,7.440076822376493,-0.05573681809419762,0.01066840662029846,0.03635861269942927,0.5563345708042063,2.529820419466878
1.5600747546381433,0.21252370789616448,7.4764354350759215,-0.05573681809419762,0.01066840662029846,0.03635861269942927,0.5587373136587672,2.5358740638235657
1.5043379365439455,0.22319211451646295,7.51279404777535,-0.05573681809419762,0.01066840662029846,0.03635861269942927,0.5621671817150706,2.5498454075885495
1.4486011184497478,0.23386052113676142,7.549152660474779,-0.05573681809419762,0.01066840662029846,0.03635861269942927,0.5622775568932905,2.5511026124163587
1.39286430035555,0.2445289277570599,7.585511273174208,-0.05573681809419762,0.01066840662029846,0.03635861269942927,0.5607372656056329,2.547298147883224
1.3371274822613524,0.25519733437735836,7.621869885873637,-0.05573681809419762,0.01066840662029846,0.03635861269942927,0.5614343286797545,2.5498310663497437
1.2813906641671546,0.2658657409976568,7.658228498573066,-0.05573681809419762,0.01066840662029846,0.03635861269942927,0.5631038564911807,2.5606042468502785
1.225653846072957,0.27653414761795525,7.694587111272495,-0.05573681809419762,0.01066840662029846,0.03635861269942927,0.5630588270137549,2.566333262532107
1.1699170279787592,0.2872025542382537,7.7309457239719235,-0.05573681809419762,0.01066840662029846,0.03635861269942927,0.5704130518809567,2.5652957903151785
1.1141802098845615,0.29787096085855214,7.767304336671352,-0.05573681809419762,0.01066840662029846,0.03635861269942927,0.5654096883177521,2.5587276395141925
1.0584433917903637,0.3085393674788506,7.803662949370781,-0.05573681809419762,0.01066840662029846,0.03635861269942927,0.5644341987031103,2.5733912642983396
1.002706573696166,0.319207774099149,7.84002156207021,-0.05573681809419762,0.01066840662029846,0.03635861269942927,0.571986599097478,2.5725502415179173
0.9469697556019684,0.32987618071944746,7.876380174769639,-0.05573681809419762,0.01066840662029846,0.03635861269942927,0.5743134451110051,2.559264851455567
0.8912329375077708,0.3405445873397459,7.912738787469068,-0.05573681809419762,0.01066840662029846,0.03635861269942927,0.5707641929900147,2.548691357085503
0.8354961194135732,0.35121299396004435,7.949097400168497,-0.05573681809419762,0.01066840662029846,0.03635861269942927,0.5703096825941328,2.5425512206608873
0.7797593013193755,0.3618814005803428,7.9854560128679255,-0.05573681809419762,0.01066840662029846,0.03635861269942927,0.5680313785025426,2.5505868279994983
0.7490288872771674,0.36948822720480173,7.935807458983748,-0.030730414042208123,0.0076068266244589434,-0.04964855388417734,0.5708865809768727,2.5656952938753985
0.7182984732349593,0.3770950538292607,7.886158905099571,-0.030730414042208123,0.0076068266244589434,-0.04964855388417734,0.5745561103703185,2.554440965722902
0.6875680591927512,0.3847018804537196,7.836510351215394,-0.030730414042208123,0.0076068266244589434,-0.04964855388417734,0.5843378699766187,2.5484182745458646
0.6568376451505431,0.39230870707817855,7.786861797331217,-0.030730414042208123,0.0076068266244589434,-0.04964855388417734,0.5898396558575405,2.543485449310758
0.626107231108335,0.3999155337026375,7.73721324344704,-0.030730414042208123,0.0076068266244589434,-0.04964855388417734,0.5935513031885188,2.524765607736294
0.5953768170661269,0.40752236032709643,7.687564689562863,-0.030730414042208123,0.0076068266244589434,-0.04964855388417734,0.592399254300975,2.535500729317769
0.5646464030239188,0.4151291869515554,7.637916135678686,-0.030730414042208123,0.0076068266244589434,-0.04964855388417734,0.5921545226042481,2.539725769705807
0.5339159889817107,0.4227360135760143,7.588267581794509,-0.030730414042208123,0.0076068266244589434,-0.04964855388417734,0.5975027443278841,2.540755472329475
0.5031855749395026,0.43034284020047325,7.538619027910332,-0.030730414042208123,0.0076068266244589434,-0.04964855388417734,0.5984813210517863,2.529384554067185
0.47245516089729445,0.4379496668249322,7.4889704740261545,-0.030730414042208123,0.0076068266244589434,-0.04964855388417734,0.5989891843746239,2.5283019961664053
0.44172474685508634,0.44555649344939113,7.439321920141977,-0.030730414042208123,0.0076068266244589434,-0.04964855388417734,0.5920384940558167,2.5217031943926926
0.5065776728987741,0.43946030462944835,7.381626735419685,0.06485292604368773,-0.006096188819942782,-0.05769518472229229,0.5865912526527606,2.538707466995217
0.5714305989424618,0.43336411580950557,7.3239315506973925,0.06485292604368773,-0.006096188819942782,-0.05769518472229229,0.576532606472731,2.554308199992371
0.6362835249861496,0.4272679269895628,7.2662363659751,0.06485292604368773,-0.006096188819942782,-0.05769518472229229,0.5835478387584588,2.561959747312777
0.7011364510298373,0.42117173816962,7.208541181252808,0.06485292604368773,-0.006096188819942782,-0.05769518472229229,0.5830872835324111,2.5517296300419448
0.7659893770735251,0.4150755493496772,7.150845996530515,0.06485292604368773,-0.006096188819942782,-0.05769518472229229,0.585389143021418,2.55858946865449
0.8308423031172129,0.40897936052973444,7.093150811808223,0.06485292604368773,-0.006096188819942782,-0.05769518472229229,0.5807104519589743,2.5486462897647786
0.8956952291609006,0.40288317170979165,7.0354556270859305,0.06485292604368773,-0.006096188819942782,-0.05769518472229229,0.5754247599231737,2.5354659390740446
0.9605481552045884,0.39678698288984887,6.977760442363638,0.06485292604368773,-0.006096188819942782,-0.05769518472229229,0.583499724310757,2.5403171783436953
1.0254010812482761,0.3906907940699061,6.920065257641346,0.06485292604368773,-0.006096188819942782,-0.05769518472229229,0.5885072644344962,2.5280684463230942
1.0902540072919638,0.3845946052499633,6.862370072919053,0.06485292604368773,-0.006096188819942782,-0.05769518472229229,0.5910222381984245,2.5145738110699263
1.1551069333356514,0.3784984164300205,6.804674888196761,0.06485292604368773,-0.006096188819942782,-0.05769518472229229,0.5918127031356621,2.5140658447628987
1.219959859379339,0.37240222761007774,6.7469797034744685,0.06485292604368773,-0.006096188819942782,-0.05769518472229229,0.5885584388920991,2.5183549496766666
1.2848127854230267,0.36630603879013496,6.689284518752176,0.06485292604368773,-0.006096188819942782,-0.05769518472229229,0.5913162222024367,2.5023291609787663
1.3496657114667143,0.3602098499701922,6.631589334029884,0.06485292604368773,-0.006096188819942782,-0.05769518472229229,0.5900495134088692,2.5238775082489795
1.414518637510402,0.3541136611502494,6.573894149307591,0.06485292604368773,-0.006096188819942782,-0.05769518472229229,0.5989629329334959,2.526788584431645
1.4793715635540896,0.3480174723303066,6.516198964585299,0.06485292604368773,-0.006096188819942782,-0.05769518472229229,0.5950738297139468,2.5268459037873803
1.5442244895977773,0.3419212835103638,6.4585037798630065,0.06485292604368773,-0.006096188819942782,-0.05769518472229229,0.5865069039414307,2.5350589800651853
1.609077415641465,0.33582509469042104,6.400808595140714,0.06485292604368773,-0.006096188819942782,-0.05769518472229229,0.5934670395293583,2.5359949920983094
1.6739303416851525,0.32972890587047826,6.343113410418422,0.06485292604368773,-0.006096188819942782,-0.05769518472229229,0.5897422162855174,2.532902224242888
1.7387832677288402,0.3236327170505355,6.285418225696129,0.06485292604368773,-0.006096188819942782,-0.05769518472229229,0.5891676705754301,2.5303822172957067
1.8036361937725278,0.3175365282305927,6.227723040973837,0.06485292604368773,-0.006096188819942782,-0.05769518472229229,0.5998668174959416,2.5345315060931757
1.8684891198162155,0.3114403394106499,6.1700278562515445,0.06485292604368773,-0.006096188819942782,-0.05769518472229229,0.5975549201485781,2.5276861777226007
1.933342045859903,0.30534415059070713,6.112332671529252,0.06485292604368773,-0.006096188819942782,-0.05769518472229229,0.6015219507412242,2.519602305970384
1.9981949719035907,0.29924796177076435,6.05463748680696,0.06485292604368773,-0.006096188819942782,-0.05769518472229229,0.6099883993101115,2.52629295276406
2.0630478979472784,0.29315177295082157,5.996942302084667,0.06485292604368773,-0.006096188819942782,-0.05769518472229229,0.6073888110796015,2.5313727184339707
2.127900823990966,0.2870555841308788,5.939247117362375,0.06485292604368773,-0.006096188819942782,-0.05769518472229229,0.6028041697694076,2.528550395015711
2.1927537500346537,0.280959395310936,5.8815519326400825,0.06485292604368773,-0.006096188819942782,-0.05769518472229229,0.6013930374868903,2.512750682649692
2.2576066760783413,0.2748632064909932,5.82385674791779,0.06485292604368773,-0.006096188819942782,-0.05769518472229229,0.5973662740503715,2.4917688001919784
2.322459602122029,0.26876701767105043,5.766161563195498,0.06485292604368773,-0.006096188819942782,-0.05769518472229229,0.5945150766400268,2.502679553547768
2.3873125281657166,0.26267082885110765,5.708466378473205,0.06485292604368773,-0.006096188819942782,-0.05769518472229229,0.5958693715304529,2.5079252595693293
2.4521654542094042,0.25657464003116487,5.650771193750913,0.06485292604368773,-0.006096188819942782,-0.05769518472229229,0.5870389294165952,2.534427506638519
2.517018380253092,0.2504784512112221,5.5930760090286205,0.06485292604368773,-0.006096188819942782,-0.05769518472229229,0.585450156697991,2.5363799140397716
2.5818713062967795,0.2443822623912793,5.535380824306328,0.06485292604368773,-0.006096188819942782,-0.05769518472229229,0.5894891189218415,2.5401929809116512
2.646724232340467,0.23828607357133652,5.477685639584036,0.06485292604368773,-0.006096188819942782,-0.05769518472229229,0.5931529123003738,2.5410754860890044
2.711577158384155,0.23218988475139374,5.419990454861743,0.06485292604368773,-0.006096188819942782,-0.05769518472229229,0.5946263509380134,2.5393358453688064
2.7764300844278424,0.22609369593145096,5.362295270139451,0.06485292604368773,-0.006096188819942782,-0.05769518472229229,0.5937833255201361,2.539192604055188
2.84128301047153,0.21999750711150817,5.304600085417158,0.06485292604368773,-0.006096188819942782,-0.05769518472229229,0.597776785017797,2.530766987879247
2.9061359365152177,0.2139013182915654,5.246904900694866,0.06485292604368773,-0.006096188819942782,-0.05769518472229229,0.5925699675364615,2.5128621630543897
2.9709888625589054,0.2078051294716226,5.189209715972574,0.06485292604368773,-0.006096188819942782,-0.05769518472229229,0.5948480292161198,2.5101734380511878
3.035841788602593,0.20170894065167982,5.131514531250281,0.06485292604368773,-0.006096188819942782,-0.05769518472229229,0.5969334921274487,2.5192119423022508
3.1006947146462807,0.19561275183173704,5.073819346527989,0.06485292604368773,-0.006096188819942782,-0.05769518472229229,0.5907936243090298,2.5191046692834305
3.1655476406899683,0.18951656301179426,5.016124161805696,0.06485292604368773,-0.006096188819942782,-0.05769518472229229,0.5830150453898514,2.5117141393684643
3.230400566733656,0.18342037419185148,4.958428977083404,0.06485292604368773,-0.006096188819942782,-0.05769518472229229,0.5886760496739278,2.502759179417395
3.2952534927773436,0.1773241853719087,4.900733792361112,0.06485292604368773,-0.006096188819942782,-0.05769518472229229,0.5889785346816537,2.5107890515470106
3.3601064188210312,0.1712279965519659,4.843038607638819,0.06485292604368773,-0.006096188819942782,-0.05769518472229229,0.5893707437834071,2.5137788354643678
3.424959344864719,0.16513180773202313,4.785343422916527,0.06485292604368773,-0.006096188819942782,-0.05769518472229229,0.5889808207570493,2.507543614143797
3.4898122709084065,0.15903561891208035,4.727648238194234,0.06485292604368773,-0.006096188819942782,-0.05769518472229229,0.5942405406070039,2.521230425415245
3.554665196952094,0.15293943009213756,4.669953053471942,0.06485292604368773,-0.006096188819942782,-0.05769518472229229,0.5867258483168845,2.5294111502407883
3.619518122995782,0.14684324127219478,4.61225786874965,0.06485292604368773,-0.006096188819942782,-0.05769518472229229,0.5833045481809334,2.5193697577255465
3.6843710490394694,0.140747052452252,4.554562684027357,0.06485292604368773,-0.006096188819942782,-0.05769518472229229,0.5740191181666631,2.52158781938917
3.749223975083157,0.13465086363230921,4.496867499305065,0.06485292604368773,-0.006096188819942782,-0.05769518472229229,0.5756789399290391,2.5134959699128867
3.8140769011268447,0.12855467481236643,4.439172314582772,0.06485292604368773,-0.006096188819942782,-0.05769518472229229,0.5668167363848255,2.5204556172437522
3.8789298271705324,0.12245848599242365,4.38147712986048,0.06485292604368773,-0.006096188819942782,-0.05769518472229229,0.5653371610980126,2.5168502138240685
3.94378275321422,0.11636229717248087,4.323781945138188,0.06485292604368773,-0.006096188819942782,-0.05769518472229229,0.5640176423333337,2.501937654544529
4.008635679257908,0.11026610835253808,4.266086760415895,0.06485292604368773,-0.006096188819942782,-0.05769518472229229,0.5580827921159837,2.4759675678249438
4.073488605301596,0.1041699195325953,4.208391575693603,0.06485292604368773,-0.006096188819942782,-0.05769518472229229,0.5562058264528935,2.4792089693570367
4.138341531345284,0.09807373071265252,4.15069639097131,0.06485292604368773,-0.006096188819942782,-0.05769518472229229,0.5525086571609183,2.4666043547964733
4.203194457388972,0.09197754189270974,4.093001206249018,0.06485292604368773,-0.006096188819942782,-0.05769518472229229,0.5519042533969547,2.4621090582428855
4.26804738343266,0.08588135307276695,4.035306021526726,0.06485292604368773,-0.006096188819942782,-0.05769518472229229,0.5545936718989868,2.4737102939351425
4.332900309476348,0.07978516425282417,3.977610836804433,0.06485292604368773,-0.006096188819942782,-0.05769518472229229,0.5536148368529884,2.4596751095469878
4.397753235520036,0.07368897543288139,3.9199156520821408,0.06485292604368773,-0.006096188819942782,-0.05769518472229229,0.5494151039511517,2.468387855926554
4.324901007432612,0.07220475460991804,3.8900439267129907,-0.07285222808742345,-0.0014842208229633516,-0.02987172536914998,0.5396728251624616,2.475112712825311
4.252048779345189,0.0707205337869547,3.8601722013438406,-0.07285222808742345,-0.0014842208229633516,-0.02987172536914998,0.542872534812192,2.4848266670632544
4.179196551257765,0.06923631296399135,3.8303004759746906,-0.07285222808742345,-0.0014842208229633516,-0.02987172536914998,0.5400786564188143,2.4752812310013903
4.106344323170341,0.06775209214102801,3.8004287506055405,-0.07285222808742345,-0.0014842208229633516,-0.02987172536914998,0.5363586100482011,2.466895307947976
4.033492095082917,0.06626787131806466,3.7705570252363905,-0.07285222808742345,-0.0014842208229633516,-0.02987172536914998,0.5284138641592967,2.479021397784255
3.960639866995494,0.06478365049510132,3.7406852998672404,-0.07285222808742345,-0.0014842208229633516,-0.02987172536914998,0.5223864167014578,2.488067025563962
3.8877876389080708,0.06329942967213797,3.7108135744980904,-0.07285222808742345,-0.0014842208229633516,-0.02987172536914998,0.5208277337038711,2.4945703269820507
3.8149354108206475,0.06181520884917462,3.6809418491289403,-0.07285222808742345,-0.0014842208229633516,-0.02987172536914998,0.5216016437998637,2.4735437895193577
3.742083182733224,0.06033098802621127,3.6510701237597902,-0.07285222808742345,-0.0014842208229633516,-0.02987172536914998,0.521736208392188,2.4659916279696525
3.669230954645801,0.05884676720324792,3.62119839839064,-0.07285222808742345,-0.0014842208229633516,-0.02987172536914998,0.5070402610517616,2.4868311003717576
3.5963787265583775,0.05736254638028457,3.59132667302149,-0.07285222808742345,-0.0014842208229633516,-0.02987172536914998,0.5151971999199958,2.4762218035019594
3.5235264984709542,0.055878325557321216,3.56145494765234,-0.07285222808742345,-0.0014842208229633516,-0.02987172536914998,0.5088308376093553,2.500221491676183
3.450674270383531,0.054394104734357865,3.53158322228319,-0.07285222808742345,-0.0014842208229633516,-0.02987172536914998,0.5012421895380051,2.5163035561549467
3.3778220422961076,0.05290988391139451,3.50171149691404,-0.07285222808742345,-0.0014842208229633516,-0.02987172536914998,0.5031355388690625,2.509821621741789
3.3049698142086843,0.05142566308843116,3.47183977154489,-0.07285222808742345,-0.0014842208229633516,-0.02987172536914998,0.5036764102392325,2.4955401414207747
3.232117586121261,0.04994144226546781,3.44196804617574,-0.07285222808742345,-0.0014842208229633516,-0.02987172536914998,0.5060169969658648,2.486536133851873
3.1592653580338377,0.04845722144250446,3.4120963208065898,-0.07285222808742345,-0.0014842208229633516,-0.02987172536914998,0.49978926469659185,2.471700279340991
3.0864131299464144,0.04697300061954111,3.3822245954374397,-0.07285222808742345,-0.0014842208229633516,-0.02987172536914998,0.4985096920297589,2.492827638710876
3.013560901858991,0.045488779796577755,3.3523528700682896,-0.07285222808742345,-0.0014842208229633516,-0.02987172536914998,0.5042776309556586,2.4952133557055016
2.9407086737715677,0.044004558973614404,3.3224811446991396,-0.07285222808742345,-0.0014842208229633516,-0.02987172536914998,0.5025740513719427,2.5048113072921776
2.8678564456841444,0.04252033815065105,3.2926094193299895,-0.07285222808742345,-0.0014842208229633516,-0.02987172536914998,0.5013358279539757,2.5034641184220607
2.795004217596721,0.0410361173276877,3.2627376939608395,-0.07285222808742345,-0.0014842208229633516,-0.02987172536914998,0.4988859111594815,2.5032387331861106
2.722151989509298,0.03955189650472435,3.2328659685916894,-0.07285222808742345,-0.0014842208229633516,-0.02987172536914998,0.5002536151218439,2.508069273193684
2.6492997614218745,0.038067675681761,3.2029942432225393,-0.07285222808742345,-0.0014842208229633516,-0.02987172536914998,0.4957225251635396,2.492471476812821
2.576447533334451,0.036583454858797645,3.1731225178533893,-0.07285222808742345,-0.0014842208229633516,-0.02987172536914998,0.4989108626823983,2.5096663489826887
2.503595305247028,0.035099234035834294,3.143250792484239,-0.07285222808742345,-0.0014842208229633516,-0.02987172536914998,0.49861327981380804,2.483378063959783
2.4307430771596046,0.03361501321287094,3.113379067115089,-0.07285222808742345,-0.0014842208229633516,-0.02987172536914998,0.49438335576679815,2.4820821750649538
2.3578908490721813,0.03213079238990759,3.083507341745939,-0.07285222808742345,-0.0014842208229633516,-0.02987172536914998,0.49067752080637494,2.491076684479003
2.285038620984758,0.03064657156694424,3.053635616376789,-0.07285222808742345,-0.0014842208229633516,-0.02987172536914998,0.49156187154928527,2.5117073020254628
2.2121863928973347,0.029162350743980887,3.023763891007639,-0.07285222808742345,-0.0014842208229633516,-0.02987172536914998,0.49502173147684425,2.492231380457428
2.1393341648099113,0.027678129921017536,2.993892165638489,-0.07285222808742345,-0.0014842208229633516,-0.02987172536914998,0.49682229673593614,2.4833999137877893
2.066481936722488,0.026193909098054184,2.964020440269339,-0.07285222808742345,-0.0014842208229633516,-0.02987172536914998,0.4951442900862056,2.4786005009247347
1.9936297086350645,0.024709688275090833,2.934148714900189,-0.07285222808742345,-0.0014842208229633516,-0.02987172536914998,0.49373091664693036,2.4699639516484964
1.920777480547641,0.02322546745212748,2.9042769895310387,-0.07285222808742345,-0.0014842208229633516,-0.02987172536914998,0.48569040818722153,2.4529435043959493
1.8479252524602174,0.02174124662916413,2.8744052641618887,-0.07285222808742345,-0.0014842208229633516,-0.02987172536914998,0.4794040745185604,2.452520430949696
1.775073024372794,0.020257025806200778,2.8445335387927386,-0.07285222808742345,-0.0014842208229633516,-0.02987172536914998,0.4866148977088633,2.4654174677072467
1.7022207962853704,0.018772804983237426,2.8146618134235886,-0.07285222808742345,-0.0014842208229633516,-0.02987172536914998,0.4760335377324241,2.4758637644909958
1.6293685681979468,0.017288584160274074,2.7847900880544385,-0.07285222808742345,-0.0014842208229633516,-0.02987172536914998,0.47666031833025135,2.4914980494434356
1.5565163401105233,0.015804363337310723,2.7549183626852884,-0.07285222808742345,-0.0014842208229633516,-0.02987172536914998,0.4777375733219329,2.495412053555812
1.4836641120230998,0.014320142514347371,2.7250466373161384,-0.07285222808742345,-0.0014842208229633516,-0.02987172536914998,0.47995772886425314,2.49923594907088
1.4108118839356762,0.01283592169138402,2.6951749119469883,-0.07285222808742345,-0.0014842208229633516,-0.02987172536914998,0.47800525018289325,2.511451900290857
1.3379596558482527,0.011351700868420668,2.6653031865778383,-0.07285222808742345,-0.0014842208229633516,-0.02987172536914998,0.47783881400660033,2.5219645541209474
1.2651074277608292,0.009867480045457316,2.635431461208688,-0.07285222808742345,-0.0014842208229633516,-0.02987172536914998,0.4728535544465904,2.5217126557024607
1.1922551996734057,0.008383259222493965,2.605559735839538,-0.07285222808742345,-0.0014842208229633516,-0.02987172536914998,0.4756528342839014,2.520663362550024
1.1194029715859821,0.006899038399530613,2.575688010470388,-0.07285222808742345,-0.0014842208229633516,-0.02987172536914998,0.4811346595282251,2.5407719527903803
1.0465507434985586,0.0054148175765672615,2.545816285101238,-0.07285222808742345,-0.0014842208229633516,-0.02987172536914998,0.4830779037404665,2.539542346442326
0.9736985154111352,0.00393059675360391,2.515944559732088,-0.07285222808742345,-0.0014842208229633516,-0.02987172536914998,0.4804224324328833,2.5249497239062864
0.9008462873237117,0.0024463759306405583,2.486072834362938,-0.07285222808742345,-0.0014842208229633516,-0.02987172536914998,0.48812766555855897,2.5085846474316718
0.8279940592362883,0.0009621551076772067,2.456201108993788,-0.07285222808742345,-0.0014842208229633516,-0.02987172536914998,0.4814533099270278,2.4996061286741447
0.7551418311488649,-0.0005220657152861449,2.426329383624638,-0.07285222808742345,-0.0014842208229633516,-0.02987172536914998,0.4875164637151039,2.491058999003856
0.6822896030614415,-0.0020062865382494965,2.3964576582554877,-0.07285222808742345,-0.0014842208229633516,-0.02987172536914998,0.4896403380808495,2.5002386541767008
0.6094373749740181,-0.003490507361212848,2.3665859328863377,-0.07285222808742345,-0.0014842208229633516,-0.02987172536914998,0.48868754130825215,2.501576421714769
0.5365851468865946,-0.0049747281841762,2.3367142075171876,-0.07285222808742345,-0.0014842208229633516,-0.02987172536914998,0.48678362263326513,2.508289410294044
0.4637329187991712,-0.006458949007139551,2.3068424821480376,-0.07285222808742345,-0.0014842208229633516,-0.02987172536914998,0.4870788324254084,2.5122760919104192
0.3908806907117478,-0.007943169830102903,2.2769707567788875,-0.07285222808742345,-0.0014842208229633516,-0.02987172536914998,0.4898843665943975,2.493417296637615
0.3180284626243244,-0.009427390653066255,2.2470990314097374,-0.07285222808742345,-0.0014842208229633516,-0.02987172536914998,0.48966995558676607,2.4728036944894045
0.24517623453690093,-0.010911611476029606,2.2172273060405874,-0.07285222808742345,-0.0014842208229633516,-0.02987172536914998,0.4942799302783603,2.481264672286105
0.17232400644947748,-0.012395832298992958,2.1873555806714373,-0.07285222808742345,-0.0014842208229633516,-0.02987172536914998,0.49205480779064625,2.470671434849165
0.09947177836205404,-0.01388005312195631,2.1574838553022873,-0.07285222808742345,-0.0014842208229633516,-0.02987172536914998,0.48986027254949777,2.466183107032115
0.026619550274630588,-0.015364273944919661,2.127612129933137,-0.07285222808742345,-0.0014842208229633516,-0.02987172536914998,0.48792905301032363,2.467002927929944
-0.04623267781279286,-0.016848494767883013,2.097740404563987,-0.07285222808742345,-0.0014842208229633516,-0.02987172536914998,0.48655533585012367,2.4445552421557046
-0.11908490590021631,-0.018332715590846364,2.067868679194837,-0.07285222808742345,-0.0014842208229633516,-0.02987172536914998,0.48712918959664775,2.4549466902886055
-0.19193713398763976,-0.019816936413809716,2.037996953825687,-0.07285222808742345,-0.0014842208229633516,-0.02987172536914998,0.4793118154132249,2.455630271995087
-0.2647893620750632,-0.021301157236773068,2.008125228456537,-0.07285222808742345,-0.0014842208229633516,-0.02987172536914998,0.47868430064854184,2.4547811734043727
-0.3376415901624866,-0.02278537805973642,1.978253503087387,-0.07285222808742345,-0.0014842208229633516,-0.02987172536914998,0.47687696038569016,2.4656374188636083
-0.41049381824991005,-0.02426959888269977,1.9483817777182368,-0.07285222808742345,-0.0014842208229633516,-0.02987172536914998,0.47798698315452554,2.4648884278558363
-0.48334604633733347,-0.025753819705663122,1.9185100523490868,-0.07285222808742345,-0.0014842208229633516,-0.02987172536914998,0.4800035464352086,2.451205284529269
-0.5561982744247569,-0.027238040528626474,1.8886383269799367,-0.07285222808742345,-0.0014842208229633516,-0.02987172536914998,0.47719854091984365,2.4390706133187248
-0.6290505025121803,-0.028722261351589826,1.8587666016107867,-0.07285222808742345,-0.0014842208229633516,-0.02987172536914998,0.48937294298523754,2.431471241509112
-0.7019027305996037,-0.030206482174553177,1.8288948762416366,-0.07285222808742345,-0.0014842208229633516,-0.02987172536914998,0.4834545053691254,2.419084121542646
-0.7747549586870272,-0.03169070299751653,1.7990231508724865,-0.07285222808742345,-0.0014842208229633516,-0.02987172536914998,0.4752760736832998,2.4048090229412
-0.8476071867744506,-0.03317492382047988,1.7691514255033365,-0.07285222808742345,-0.0014842208229633516,-0.02987172536914998,0.4854850543817908,2.4110070147833436
-0.920459414861874,-0.03465914464344323,1.7392797001341864,-0.07285222808742345,-0.0014842208229633516,-0.02987172536914998,0.48907089886395044,2.385286137242196
-0.9933116429492974,-0.036143365466406584,1.7094079747650364,-0.07285222808742345,-0.0014842208229633516,-0.02987172536914998,0.49963909492994174,2.382814453398416
-1.066163871036721,-0.037627586289369935,1.6795362493958863,-0.07285222808742345,-0.0014842208229633516,-0.02987172536914998,0.5215514381915186,2.3871964980784446
-1.1390160991241445,-0.03911180711233329,1.6496645240267362,-0.07285222808742345,-0.0014842208229633516,-0.02987172536914998,0.5215514381915186,2.384076750757116
-1.211868327211568,-0.04059602793529664,1.6197927986575862,-0.07285222808742345,-0.0014842208229633516,-0.02987172536914998,0.5317761948519931,2.3921008181206176
-1.2847205552989915,-0.04208024875825999,1.5899210732884361,-0.07285222808742345,-0.0014842208229633516,-0.02987172536914998,0.5317761948519931,2.4050255933425584
-1.357572783386415,-0.04356446958122334,1.560049347919286,-0.07285222808742345,-0.0014842208229633516,-0.02987172536914998,0.5317761948519931,2.3890795990572715
-1.4304250114738386,-0.04504869040418669,1.530177622550136,-0.07285222808742345,-0.0014842208229633516,-0.02987172536914998,0.5326018185470531,2.3801902416683687
-1.5032772395612621,-0.046532911227150045,1.500305897180986,-0.07285222808742345,-0.0014842208229633516,-0.02987172536914998,0.5326018185470531,2.3822184917701827
-1.5761294676486857,-0.0480171320501134,1.4704341718118359,-0.07285222808742345,-0.0014842208229633516,-0.02987172536914998,0.5267285319859457,2.3733855741981844
-1.6489816957361092,-0.04950135287307675,1.4405624464426858,-0.07285222808742345,-0.0014842208229633516,-0.02987172536914998,0.5504924118781215,2.37918643708303
-1.6514639656176553,-0.06318079697006541,1.4126973033186392,-0.0024822698815460662,-0.01367944409698866,-0.027865143124046726,0.5504924118781215,2.366349066782839
-1.6539462354992014,-0.07686024106705408,1.3848321601945925,-0.0024822698815460662,-0.01367944409698866,-0.027865143124046726,0.5504924118781215,2.3666455808744242
-1.6564285053807475,-0.09053968516404275,1.356967017070546,-0.0024822698815460662,-0.01367944409698866,-0.027865143124046726,0.5504924118781215,2.3531622939530594
-1.6589107752622936,-0.10421912926103141,1.3291018739464993,-0.0024822698815460662,-0.01367944409698866,-0.027865143124046726,0.5504924118781215,2.3371317743602655
-1.6613930451438397,-0.11789857335802008,1.3012367308224526,-0.0024822698815460662,-0.01367944409698866,-0.027865143124046726,0.5745708387850289,2.33250583147477
-1.6638753150253858,-0.13157801745500874,1.273371587698406,-0.0024822698815460662,-0.01367944409698866,-0.027865143124046726,0.5745708387850289,2.3267019725258447
-1.6663575849069319,-0.1452574615519974,1.2455064445743593,-0.0024822698815460662,-0.01367944409698866,-0.027865143124046726,0.5745708387850289,2.3071938914628705
-1.668839854788478,-0.15893690564898605,1.2176413014503127,-0.0024822698815460662,-0.01367944409698866,-0.027865143124046726,0.5679396319237311,2.3055362176573078
-1.671322124670024,-0.1726163497459747,1.189776158326266,-0.0024822698815460662,-0.01367944409698866,-0.027865143124046726,0.5852980323453778,2.3271242859984294
-1.6738043945515702,-0.18629579384296335,1.1619110152022194,-0.0024822698815460662,-0.01367944409698866,-0.027865143124046726,0.5852980323453778,2.3297437231391993
-1.6762866644331162,-0.199975237939952,1.1340458720781728,-0.0024822698815460662,-0.01367944409698866,-0.027865143124046726,0.5852980323453778,2.3259192520356806
-1.6787689343146623,-0.21365468203694066,1.1061807289541261,-0.0024822698815460662,-0.01367944409698866,-0.027865143124046726,0.5852980323453778,2.321060716678574
-1.6812512041962084,-0.2273341261339293,1.0783155858300795,-0.0024822698815460662,-0.01367944409698866,-0.027865143124046726,0.5852980323453778,2.337450527403549
-1.6837334740777545,-0.24101357023091796,1.0504504427060328,-0.0024822698815460662,-0.01367944409698866,-0.027865143124046726,0.5852980323453778,2.3451489914664543
-1.6862157439593006,-0.25469301432790664,1.0225852995819862,-0.0024822698815460662,-0.01367944409698866,-0.027865143124046726,0.5917499537854326,2.3499025034930803
-1.6856652039656286,-0.25400751239750674,1.0926459059440494,0.0005505399936719644,0.0006855019303999059,0.0700606063620633,0.5917499537854326,2.3335125310147458
-1.6851146639719565,-0.25332201046710684,1.1627065123061127,0.0005505399936719644,0.0006855019303999059,0.0700606063620633,0.6029694165110443,2.3337821364253317
-1.6845641239782845,-0.25263650853670694,1.232767118668176,0.0005505399936719644,0.0006855019303999059,0.0700606063620633,0.6029694165110443,2.3435321790080152
-1.6840135839846124,-0.25195100660630704,1.3028277250302391,0.0005505399936719644,0.0006855019303999059,0.0700606063620633,0.6029694165110443,2.3481604375889966
-1.6834630439909404,-0.25126550467590714,1.3728883313923024,0.0005505399936719644,0.0006855019303999059,0.0700606063620633,0.5940590299064682,2.3650793408938777
-1.6829125039972683,-0.25058000274550724,1.4429489377543656,0.0005505399936719644,0.0006855019303999059,0.0700606063620633,0.5926966773889442,2.3877429973246858
-1.6823619640035963,-0.24989450081510733,1.5130095441164289,0.0005505399936719644,0.0006855019303999059,0.0700606063620633,0.5926966773889442,2.4105518522986435
-1.6818114240099242,-0.24920899888470743,1.583070150478492,0.0005505399936719644,0.0006855019303999059,0.0700606063620633,0.5926966773889442,2.433506369451649
-1.6812608840162522,-0.24852349695430753,1.6531307568405553,0.0005505399936719644,0.0006855019303999059,0.0700606063620633,0.5926966773889442,2.4566070124195964
-1.6807103440225801,-0.24783799502390763,1.7231913632026186,0.0005505399936719644,0.0006855019303999059,0.0700606063620633,0.5926966773889442,2.4798542448383825
-1.680159804028908,-0.24715249309350773,1.7932519695646818,0.0005505399936719644,0.0006855019303999059,0.0700606063620633,0.5926966773889442,2.5032485303439054
-1.679609264035236,-0.24646699116310783,1.863312575926745,0.0005505399936719644,0.0006855019303999059,0.0700606063620633,0.5926966773889442,2.5267903325720584
-1.679058724041564,-0.24578148923270793,1.9333731822888083,0.0005505399936719644,0.0006855019303999059,0.0700606063620633,0.5926966773889442,2.5504801151587397
-1.678508184047892,-0.24509598730230803,2.0034337886508715,0.0005505399936719644,0.0006855019303999059,0.0700606063620633,0.5926966773889442,2.5743183417398456
-1.6779576440542199,-0.24441048537190813,2.073494395012935,0.0005505399936719644,0.0006855019303999059,0.0700606063620633,0.5926966773889442,2.5983054759512725
-1.6774071040605478,-0.24372498344150823,2.1435550013749984,0.0005505399936719644,0.0006855019303999059,0.0700606063620633,0.5926966773889442,2.5983054759512725
-1.6768565640668758,-0.24303948151110832,2.213615607737062,0.0005505399936719644,0.0006855019303999059,0.0700606063620633,0.5938575140365858,2.5983054759512725
-1.6763060240732037,-0.24235397958070842,2.2836762140991254,0.0005505399936719644,0.0006855019303999059,0.0700606063620633,0.5876747309719156,2.5983054759512725
-1.6757554840795317,-0.24166847765030852,2.353736820461189,0.0005505399936719644,0.0006855019303999059,0.0700606063620633,0.5800206540454188,2.5983054759512725
-1.6752049440858596,-0.24098297571990862,2.4237974268232523,0.0005505399936719644,0.0006855019303999059,0.0700606063620633,0.5776498875864482,2.5983054759512725
-1.6746544040921876,-0.24029747378950872,2.4938580331853157,0.0005505399936719644,0.0006855019303999059,0.0700606063620633,0.5724053165259848,2.5983054759512725
-1.6741038640985155,-0.23961197185910882,2.563918639547379,0.0005505399936719644,0.0006855019303999059,0.0700606063620633,0.5654530981105037,2.5983054759512725
-1.6735533241048435,-0.23892646992870892,2.6339792459094427,0.0005505399936719644,0.0006855019303999059,0.0700606063620633,0.5629137526235682,2.5983054759512725
-1.6730027841111714,-0.23824096799830902,2.704039852271506,0.0005505399936719644,0.0006855019303999059,0.0700606063620633,0.5638343697716097,2.5983054759512725
-1.6724522441174994,-0.23755546606790912,2.7741004586335696,0.0005505399936719644,0.0006855019303999059,0.0700606063620633,0.5648779949093804,2.5983054759512725
-1.6719017041238273,-0.23686996413750921,2.844161064995633,0.0005505399936719644,0.0006855019303999059,0.0700606063620633,0.5659814396803691,2.5793224157685457
-1.6713511641301553,-0.2361844622071093,2.9142216713576965,0.0005505399936719644,0.0006855019303999059,0.0700606063620633,0.5603947319904248,2.5701800032111035
-1.6708006241364832,-0.2354989602767094,2.98428227771976,0.0005505399936719644,0.0006855019303999059,0.0700606063620633,0.559020925174926,2.5650745440264475
-1.6702500841428112,-0.2348134583463095,3.0543428840818234,0.0005505399936719644,0.0006855019303999059,0.0700606063620633,0.5548737340174608,2.5702372328450895
-1.6696995441491391,-0.2341279564159096,3.124403490443887,0.0005505399936719644,0.0006855019303999059,0.0700606063620633,0.5459747150323708,2.5658484939655892
-1.669149004155467,-0.2334424544855097,3.1944640968059503,0.0005505399936719644,0.0006855019303999059,0.0700606063620633,0.5525414230816191,2.56720292163858
-1.668598464161795,-0.2327569525551098,3.264524703168014,0.0005505399936719644,0.0006855019303999059,0.0700606063620633,0.546763932380346,2.572376386798384
-1.668047924168123,-0.2320714506247099,3.3345853095300773,0.0005505399936719644,0.0006855019303999059,0.0700606063620633,0.5382501284090615,2.5606163890913183
-1.667497384174451,-0.23138594869431,3.4046459158921407,0.0005505399936719644,0.0006855019303999059,0.0700606063620633,0.5390404965934872,2.5599149440308713
-1.6669468441807789,-0.2307004467639101,3.474706522254204,0.0005505399936719644,0.0006855019303999059,0.0700606063620633,0.5358029591403255,2.558294413100648
-1.6663963041871068,-0.2300149448335102,3.5447671286162676,0.0005505399936719644,0.0006855019303999059,0.0700606063620633,0.5364658258824776,2.557290615635541
-1.6658457641934348,-0.2293294429031103,3.614827734978331,0.0005505399936719644,0.0006855019303999059,0.0700606063620633,0.531403867332548,2.556244499776644
-1.6652952241997627,-0.2286439409727104,3.6848883413403946,0.0005505399936719644,0.0006855019303999059,0.0700606063620633,0.5311875329497617,2.5634043977616723
-1.6647446842060907,-0.2279584390423105,3.754948947702458,0.0005505399936719644,0.0006855019303999059,0.0700606063620633,0.5350777959472595,2.5557906211900887
-1.6641941442124186,-0.2272729371119106,3.8250095540645215,0.0005505399936719644,0.0006855019303999059,0.0700606063620633,0.5413754389641786,2.559537711233756
-1.6636436042187466,-0.2265874351815107,3.895070160426585,0.0005505399936719644,0.0006855019303999059,0.0700606063620633,0.5396228219322842,2.564172934772024
-1.6630930642250745,-0.2259019332511108,3.9651307667886484,0.0005505399936719644,0.0006855019303999059,0.0700606063620633,0.5456324446052178,2.559886883745654
-1.6625425242314025,-0.2252164313207109,4.035191373150711,0.0005505399936719644,0.0006855019303999059,0.0700606063620633,0.5420032615690282,2.5578488758423377
-1.6619919842377304,-0.224530929390311,4.105251979512775,0.0005505399936719644,0.0006855019303999059,0.0700606063620633,0.5421603196117908,2.559166557046566
-1.6614414442440584,-0.2238454274599111,4.175312585874838,0.0005505399936719644,0.0006855019303999059,0.0700606063620633,0.5314622751764414,2.571850730624404
-1.6608909042503863,-0.2231599255295112,4.245373192236902,0.0005505399936719644,0.0006855019303999059,0.0700606063620633,0.5335905942787821,2.5753701051262383
-1.6603403642567143,-0.2224744235991113,4.315433798598965,0.0005505399936719644,0.0006855019303999059,0.0700606063620633,0.5362352019176003,2.582812207779184
-1.6597898242630422,-0.2217889216687114,4.385494404961029,0.0005505399936719644,0.0006855019303999059,0.0700606063620633,0.5414297624500708,2.58016057126247
-1.6592392842693702,-0.2211034197383115,4.455555011323092,0.0005505399936719644,0.0006855019303999059,0.0700606063620633,0.5410054902861898,2.5702076911199065
-1.6586887442756981,-0.2204179178079116,4.525615617685156,0.0005505399936719644,0.0006855019303999059,0.0700606063620633,0.547293094304492,2.575045409398674
-1.658138204282026,-0.2197324158775117,4.595676224047219,0.0005505399936719644,0.0006855019303999059,0.0700606063620633,0.5356421879915458,2.555464774017766
-1.657587664288354,-0.2190469139471118,4.6657368304092826,0.0005505399936719644,0.0006855019303999059,0.0700606063620633,0.5381146961909464,2.554895192815117
-1.657037124294682,-0.2183614120167119,4.735797436771346,0.0005505399936719644,0.0006855019303999059,0.0700606063620633,0.5368309766015347,2.5678784231749434
-1.65648658430101,-0.21767591008631199,4.8058580431334095,0.0005505399936719644,0.0006855019303999059,0.0700606063620633,0.5350530357000518,2.5656867866874262
-1.6559360443073379,-0.21699040815591208,4.875918649495473,0.0005505399936719644,0.0006855019303999059,0.0700606063620633,0.5278003377432949,2.5709748998741246
-1.6553855043136658,-0.21630490622551218,4.945979255857536,0.0005505399936719644,0.0006855019303999059,0.0700606063620633,0.5258457324542221,2.5712834517514223
-1.6548349643199938,-0.21561940429511228,5.0160398622196,0.0005505399936719644,0.0006855019303999059,0.0700606063620633,0.530461279730593,2.5599965968830802
-1.6542844243263217,-0.21493390236471238,5.086100468581663,0.0005505399936719644,0.0006855019303999059,0.0700606063620633,0.5335721657305175,2.551063974752979
-1.6537338843326497,-0.21424840043431248,5.156161074943727,0.0005505399936719644,0.0006855019303999059,0.0700606063620633,0.5346980846718036,2.554048490227769
-1.6531833443389776,-0.21356289850391258,5.22622168130579,0.0005505399936719644,0.0006855019303999059,0.0700606063620633,0.5324565119893185,2.5553792261719157
-1.6526328043453056,-0.21287739657351268,5.296282287667854,0.0005505399936719644,0.0006855019303999059,0.0700606063620633,0.5347525839420741,2.5484270938252966
-1.6520822643516335,-0.21219189464311278,5.366342894029917,0.0005505399936719644,0.0006855019303999059,0.0700606063620633,0.5318588731069483,2.550427697314988
-1.6515317243579615,-0.21150639271271288,5.436403500391981,0.0005505399936719644,0.0006855019303999059,0.0700606063620633,0.5266301827223427,2.5343756652063174
-1.6509811843642894,-0.21082089078231298,5.506464106754044,0.0005505399936719644,0.0006855019303999059,0.0700606063620633,0.5197681033548044,2.5321290112596073
-1.6504306443706174,-0.21013538885191307,5.5765247131161075,0.0005505399936719644,0.0006855019303999059,0.0700606063620633,0.522386193620425,2.525771821111364
-1.6498801043769453,-0.20944988692151317,5.646585319478171,0.0005505399936719644,0.0006855019303999059,0.0700606063620633,0.5236505407122058,2.533975156627293
-1.6493295643832733,-0.20876438499111327,5.7166459258402345,0.0005505399936719644,0.0006855019303999059,0.0700606063620633,0.5238668074231729,2.532044235714387
-1.6487790243896012,-0.20807888306071337,5.786706532202298,0.0005505399936719644,0.0006855019303999059,0.0700606063620633,0.5236248085415732,2.520402483694226
-1.6482284843959292,-0.20739338113031347,5.856767138564361,0.0005505399936719644,0.0006855019303999059,0.0700606063620633,0.5252329001883046,2.529180510441622
-1.6476779444022571,-0.20670787919991357,5.926827744926425,0.0005505399936719644,0.0006855019303999059,0.0700606063620633,0.5233542616650988,2.524066151094818
-1.647127404408585,-0.20602237726951367,5.996888351288488,0.0005505399936719644,0.0006855019303999059,0.0700606063620633,0.5239514488782588,2.5267595488918175
-1.646576864414913,-0.20533687533911377,6.066948957650552,0.0005505399936719644,0.0006855019303999059,0.0700606063620633,0.5240594736976295,2.513959227083758
-1.646026324421241,-0.20465137340871387,6.137009564012615,0.0005505399936719644,0.0006855019303999059,0.0700606063620633,0.5178320585160028,2.5088544209319914
-1.645475784427569,-0.20396587147831396,6.207070170374679,0.0005505399936719644,0.0006855019303999059,0.0700606063620633,0.5013248104578488,2.5083888589706382
-1.6449252444338969,-0.20328036954791406,6.277130776736742,0.0005505399936719644,0.0006855019303999059,0.0700606063620633,0.49766523630571025,2.5213627519571498
-1.6443747044402248,-0.20259486761751416,6.347191383098806,0.0005505399936719644,0.0006855019303999059,0.0700606063620633,0.49620791180132356,2.538727758505651
-1.6438241644465528,-0.20190936568711426,6.417251989460869,0.0005505399936719644,0.0006855019303999059,0.0700606063620633,0.5007702533611575,2.529873821533193
-1.6432736244528807,-0.20122386375671436,6.4873125958229325,0.0005505399936719644,0.0006855019303999059,0.0700606063620633,0.49879277747425166,2.5248998587730025
-1.6427230844592087,-0.20053836182631446,6.557373202184996,0.0005505399936719644,0.0006855019303999059,0.0700606063620633,0.4900753614865882,2.534272016969616
-1.6421725444655366,-0.19985285989591456,6.627433808547059,0.0005505399936719644,0.0006855019303999059,0.0700606063620633,0.49440903565948435,2.54556555753923
-1.6416220044718646,-0.19916735796551466,6.697494414909123,0.0005505399936719644,0.0006855019303999059,0.0700606063620633,0.4856773441461592,2.550959319630306
-1.6410714644781925,-0.19848185603511476,6.767555021271186,0.0005505399936719644,0.0006855019303999059,0.0700606063620633,0.49034271648215766,2.551418970378631
-1.6405209244845205,-0.19779635410471486,6.83761562763325,0.0005505399936719644,0.0006855019303999059,0.0700606063620633,0.49385560630185743,2.5748797400208208
-1.6399703844908484,-0.19711085217431495,6.907676233995313,0.0005505399936719644,0.0006855019303999059,0.0700606063620633,0.4911206451753139,2.5824319437021956
-1.6394198444971764,-0.19642535024391505,6.977736840357377,0.0005505399936719644,0.0006855019303999059,0.0700606063620633,0.4859369966033511,2.5906666108373195
-1.6388693045035043,-0.19573984831351515,7.04779744671944,0.0005505399936719644,0.0006855019303999059,0.0700606063620633,0.4926074978675176,2.578861180250736
-1.6383187645098323,-0.19505434638311525,7.117858053081504,0.0005505399936719644,0.0006855019303999059,0.0700606063620633,0.48870055495399173,2.5685501019090804
-1.6377682245161602,-0.19436884445271535,7.187918659443567,0.0005505399936719644,0.0006855019303999059,0.0700606063620633,0.4929559783155843,2.567643979895596
-1.6372176845224882,-0.19368334252231545,7.257979265805631,0.0005505399936719644,0.0006855019303999059,0.0700606063620633,0.48973753084280264,2.5723834465481836
-1.6366671445288161,-0.19299784059191555,7.328039872167694,0.0005505399936719644,0.0006855019303999059,0.0700606063620633,0.47966462988019887,2.5763540047677886
-1.6853593732094518,-0.1900862118061683,7.337659884258239,-0.04869222868063577,0.0029116287857472328,0.009620012090544373,0.4877273430843986,2.5827210635435374
-1.7340516018900876,-0.18717458302042106,7.347279896348783,-0.04869222868063577,0.0029116287857472328,0.009620012090544373,0.4830896089924831,2.5789098196645446
-1.7827438305707233,-0.18426295423467381,7.356899908439328,-0.04869222868063577,0.0029116287857472328,0.009620012090544373,0.4867083259965826,2.586402960894618
-1.831436059251359,-0.18135132544892657,7.366519920529872,-0.04869222868063577,0.0029116287857472328,0.009620012090544373,0.4859036643469348,2.5972826604045633
-1.8801282879319947,-0.17843969666317933,7.376139932620417,-0.04869222868063577,0.0029116287857472328,0.009620012090544373,0.48062320708825523,2.6101741803107963
-1.9288205166126304,-0.17552806787743208,7.385759944710961,-0.04869222868063577,0.0029116287857472328,0.009620012090544373,0.4817604239222183,2.6156307818025644
-1.9775127452932661,-0.17261643909168484,7.395379956801506,-0.04869222868063577,0.0029116287857472328,0.009620012090544373,0.4791168213842687,2.6099995934028044
-2.026204973973902,-0.1697048103059376,7.40499996889205,-0.04869222868063577,0.0029116287857472328,0.009620012090544373,0.48336780553419056,2.590914591117573
-2.0748972026545376,-0.16679318152019035,7.414619980982595,-0.04869222868063577,0.0029116287857472328,0.009620012090544373,0.4904854957132753,2.5758867179890585
-2.1235894313351733,-0.1638815527344431,7.424239993073139,-0.04869222868063577,0.0029116287857472328,0.009620012090544373,0.4831066864115927,2.5855969255902114
-2.172281660015809,-0.16096992394869586,7.433860005163684,-0.04869222868063577,0.0029116287857472328,0.009620012090544373,0.48515939004356523,2.5994957780891155
-2.2209738886964447,-0.15805829516294861,7.443480017254228,-0.04869222868063577,0.0029116287857472328,0.009620012090544373,0.4800476469255069,2.5899456700599046
-2.2696661173770805,-0.15514666637720137,7.453100029344773,-0.04869222868063577,0.0029116287857472328,0.009620012090544373,0.47385137455309334,2.5815793909294564
-2.318358346057716,-0.15223503759145413,7.462720041435317,-0.04869222868063577,0.0029116287857472328,0.009620012090544373,0.4694522563476075,2.571533146945042
-2.367050574738352,-0.14932340880570688,7.472340053525862,-0.04869222868063577,0.0029116287857472328,0.009620012090544373,0.468158511287184,2.55635548358422
-2.4157428034189876,-0.14641178001995964,7.4819600656164065,-0.04869222868063577,0.0029116287857472328,0.009620012090544373,0.4669116945601393,2.5612409393856272
-2.4644350320996233,-0.1435001512342124,7.491580077706951,-0.04869222868063577,0.0029116287857472328,0.009620012090544373,0.46478473614004223,2.5621741101783484
-2.513127260780259,-0.14058852244846515,7.5012000897974955,-0.04869222868063577,0.0029116287857472328,0.009620012090544373,0.46767597246001125,2.5739654374658856
-2.5618194894608948,-0.1376768936627179,7.51082010188804,-0.04869222868063577,0.0029116287857472328,0.009620012090544373,0.4719634453052529,2.5782783629966874
-2.6105117181415305,-0.13476526487697066,7.520440113978585,-0.04869222868063577,0.0029116287857472328,0.009620012090544373,0.472363568774666,2.5931724060085024
-2.659203946822166,-0.13185363609122341,7.530060126069129,-0.04869222868063577,0.0029116287857472328,0.009620012090544373,0.4671071974645157,2.5892017355317725
-2.707896175502802,-0.12894200730547617,7.539680138159674,-0.04869222868063577,0.0029116287857472328,0.009620012090544373,0.46650836004862195,2.578249130078872
-2.7565884041834376,-0.12603037851972893,7.549300150250218,-0.04869222868063577,0.0029116287857472328,0.009620012090544373,0.4646758343028272,2.576601168628166
-2.8052806328640734,-0.1231187497339817,7.558920162340763,-0.04869222868063577,0.0029116287857472328,0.009620012090544373,0.46497992201528776,2.583870857335864
-2.853972861544709,-0.12020712094823446,7.568540174431307,-0.04869222868063577,0.0029116287857472328,0.009620012090544373,0.46159520484835154,2.602349845804333
-2.902665090225345,-0.11729549216248723,7.578160186521852,-0.04869222868063577,0.0029116287857472328,0.009620012090544373,0.4604251393613004,2.605000388018505
-2.9513573189059805,-0.11438386337674,7.587780198612396,-0.04869222868063577,0.0029116287857472328,0.009620012090544373,0.45701460484474865,2.57773570709813
-3.0000495475866162,-0.11147223459099277,7.597400210702941,-0.04869222868063577,0.0029116287857472328,0.009620012090544373,0.4604085218657403,2.5819071487732392
-3.048741776267252,-0.10856060580524554,7.607020222793485,-0.04869222868063577,0.0029116287857472328,0.009620012090544373,0.4632028421837355,2.5900325834265425
-3.0974340049478877,-0.10564897701949831,7.61664023488403,-0.04869222868063577,0.0029116287857472328,0.009620012090544373,0.4560476141263731,2.608025798585158
-3.1461262336285234,-0.10273734823375108,7.626260246974574,-0.04869222868063577,0.0029116287857472328,0.009620012090544373,0.4540115229040476,2.606859640645056
-3.194818462309159,-0.09982571944800385,7.635880259065119,-0.04869222868063577,0.0029116287857472328,0.009620012090544373,0.4517798416289334,2.5900478096718085
-3.243510690989795,-0.09691409066225662,7.645500271155663,-0.04869222868063577,0.0029116287857472328,0.009620012090544373,0.4486647157013676,2.5827858339136958
-3.2922029196704305,-0.09400246187650939,7.655120283246208,-0.04869222868063577,0.0029116287857472328,0.009620012090544373,0.44682818020195875,2.5896063758302432
-3.3408951483510663,-0.09109083309076216,7.6647402953367525,-0.04869222868063577,0.0029116287857472328,0.009620012090544373,0.44747587865268995,2.5864558035758645
-3.389587377031702,-0.08817920430501493,7.674360307427297,-0.04869222868063577,0.0029116287857472328,0.009620012090544373,0.4431367848716405,2.60343251544997
-3.4382796057123377,-0.0852675755192677,7.6839803195178416,-0.04869222868063577,0.0029116287857472328,0.009620012090544373,0.4494034488573047,2.6007611985665346
-3.4869718343929734,-0.08235594673352047,7.693600331608386,-0.04869222868063577,0.0029116287857472328,0.009620012090544373,0.45135949871859254,2.600530977132214
-3.535664063073609,-0.07944431794777324,7.703220343698931,-0.04869222868063577,0.0029116287857472328,0.009620012090544373,0.4521418484543922,2.6060998154281774
-3.584356291754245,-0.076532689162026,7.712840355789475,-0.04869222868063577,0.0029116287857472328,0.009620012090544373,0.4477802133164775,2.6022027070035496
-3.6330485204348806,-0.07362106037627877,7.72246036788002,-0.04869222868063577,0.0029116287857472328,0.009620012090544373,0.4486452862480883,2.598399659140745
-3.6817407491155163,-0.07070943159053154,7.732080379970564,-0.04869222868063577,0.0029116287857472328,0.009620012090544373,0.45145010753290626,2.587767882827187
-3.730432977796152,-0.06779780280478431,7.741700392061109,-0.04869222868063577,0.0029116287857472328,0.009620012090544373,0.45968422830321826,2.584449663835393
-3.7791252064767877,-0.06488617401903708,7.751320404151653,-0.04869222868063577,0.0029116287857472328,0.009620012090544373,0.459673446237154,2.5953878676452646
-3.8278174351574235,-0.06197454523328985,7.760940416242198,-0.04869222868063577,0.0029116287857472328,0.009620012090544373,0.46223548614024695,2.589897323661791
-3.876509663838059,-0.05906291644754262,7.770560428332742,-0.04869222868063577,0.0029116287857472328,0.009620012090544373,0.45089961670246154,2.5953334579711402
-3.925201892518695,-0.05615128766179539,7.780180440423287,-0.04869222868063577,0.0029116287857472328,0.009620012090544373,0.45574830748101414,2.5988331362546266
-3.9738941211993306,-0.05323965887604816,7.789800452513831,-0.04869222868063577,0.0029116287857472328,0.009620012090544373,0.4525533267557787,2.5956053571431275
-4.022586349879966,-0.05032803009030093,7.799420464604376,-0.04869222868063577,0.0029116287857472328,0.009620012090544373,0.45247150354396043,2.5868008012015595
-4.0712785785606025,-0.0474164013045537,7.80904047669492,-0.04869222868063577,0.0029116287857472328,0.009620012090544373,0.4476075518005359,2.6019210578931675
-4.119970807241239,-0.04450477251880647,7.818660488785465,-0.04869222868063577,0.0029116287857472328,0.009620012090544373,0.4500057443791478,2.610484910446209
-4.168663035921875,-0.04159314373305924,7.8282805008760095,-0.04869222868063577,0.0029116287857472328,0.009620012090544373,0.44623057478793066,2.612891627291058
-4.217355264602511,-0.03868151494731201,7.837900512966554,-0.04869222868063577,0.0029116287857472328,0.009620012090544373,0.4511206090780219,2.6212205228708227
-4.266047493283147,-0.035769886161564776,7.8475205250570985,-0.04869222868063577,0.0029116287857472328,0.009620012090544373,0.45224901206658347,2.606754983018406
-4.314739721963783,-0.032858257375817546,7.857140537147643,-0.04869222868063577,0.0029116287857472328,0.009620012090544373,0.44786121523481703,2.626969251306766
-4.3634319506444195,-0.02994662859007031,7.866760549238188,-0.04869222868063577,0.0029116287857472328,0.009620012090544373,0.4498153672806297,2.6154217849355477
-4.412124179325056,-0.027034999804323077,7.876380561328732,-0.04869222868063577,0.0029116287857472328,0.009620012090544373,0.44992412891372846,2.59704476595628
-4.460816408005692,-0.024123371018575843,7.886000573419277,-0.04869222868063577,0.0029116287857472328,0.009620012090544373,0.44413029208213234,2.5890169794772806
-4.509508636686328,-0.02121174223282861,7.895620585509821,-0.04869222868063577,0.0029116287857472328,0.009620012090544373,0.4474813109834215,2.5930118018315818
-4.558200865366964,-0.018300113447081375,7.905240597600366,-0.04869222868063577,0.0029116287857472328,0.009620012090544373,0.44580949863952096,2.5860544921380604
-4.6068930940476,-0.015388484661334143,7.91486060969091,-0.04869222868063577,0.0029116287857472328,0.009620012090544373,0.43709659431693204,2.5606399153812105
-4.655585322728236,-0.01247685587558691,7.924480621781455,-0.04869222868063577,0.0029116287857472328,0.009620012090544373,0.43414572826986686,2.5717901022871565
-4.704277551408873,-0.009565227089839678,7.934100633871999,-0.04869222868063577,0.0029116287857472328,0.009620012090544373,0.44290953582398956,2.568591874981065
-4.752969780089509,-0.006653598304092446,7.943720645962544,-0.04869222868063577,0.0029116287857472328,0.009620012090544373,0.44873914383597746,2.5708457451958666
-4.801662008770145,-0.003741969518345213,7.953340658053088,-0.04869222868063577,0.0029116287857472328,0.009620012090544373,0.45407869198205536,2.575016831810322
-4.850354237450781,-0.0008303407325979803,7.962960670143633,-0.04869222868063577,0.0029116287857472328,0.009620012090544373,0.45567875332991375,2.578648044799487
-4.899046466131417,0.0020812880531492525,7.972580682234177,-0.04869222868063577,0.0029116287857472328,0.009620012090544373,0.4552240742550747,2.6036735071646127
-4.947738694812053,0.004992916838896485,7.982200694324722,-0.04869222868063577,0.0029116287857472328,0.009620012090544373,0.4437552515150132,2.603695753071559
-4.99643092349269,0.007904545624643718,7.991820706415266,-0.04869222868063577,0.0029116287857472328,0.009620012090544373,0.4439430464790005,2.5983114201581783
-5.045123152173326,0.01081617441039095,8.00144071850581,-0.04869222868063577,0.0029116287857472328,0.009620012090544373,0.4451571405929759,2.5868026576673193
-5.093815380853962,0.013727803196138182,8.011060730596354,-0.04869222868063577,0.0029116287857472328,0.009620012090544373,0.43519586308280567,2.5933393627676042
-5.142507609534598,0.016639431981885416,8.020680742686897,-0.04869222868063577,0.0029116287857472328,0.009620012090544373,0.4439088650780094,2.5844703945872007
-5.191199838215234,0.01955106076763265,8.030300754777441,-0.04869222868063577,0.0029116287857472328,0.009620012090544373,0.43765789271405037,2.5916108305428156
-5.23989206689587,0.022462689553379885,8.039920766867985,-0.04869222868063577,0.0029116287857472328,0.009620012090544373,0.43908029815691035,2.5841801712232613
-5.2885842955765066,0.02537431833912712,8.049540778958528,-0.04869222868063577,0.0029116287857472328,0.009620012090544373,0.43475490264062716,2.591932774165912
-5.337276524257143,0.028285947124874353,8.059160791049072,-0.04869222868063577,0.0029116287857472328,0.009620012090544373,0.44056846091901836,2.609100956083248
-5.385968752937779,0.031197575910621587,8.068780803139616,-0.04869222868063577,0.0029116287857472328,0.009620012090544373,0.4354808258329208,2.606669922464743
-5.434660981618415,0.03410920469636882,8.07840081523016,-0.04869222868063577,0.0029116287857472328,0.009620012090544373,0.4403299229336822,2.6044984420031385
-5.425911688280087,0.035962622552706325,8.07156604614872,0.008749293338327937,0.0018534178563375046,-0.006834769081440349,0.4394404476821818,2.60386276171796
-5.4171623949417596,0.03781604040904383,8.06473127706728,0.008749293338327937,0.0018534178563375046,-0.006834769081440349,0.43529027965828965,2.604702158409054
-5.408413101603432,0.03966945826538133,8.05789650798584,0.008749293338327937,0.0018534178563375046,-0.006834769081440349,0.4238123255624126,2.6066710016240857
-5.399663808265104,0.04152287612171884,8.0510617389044,0.008749293338327937,0.0018534178563375046,-0.006834769081440349,0.4129231617965218,2.6013941578696373
-5.390914514926776,0.04337629397805634,8.04422696982296,0.008749293338327937,0.0018534178563375046,-0.006834769081440349,0.412207627280425,2.60252530669176
-5.382165221588449,0.045229711834393845,8.03739220074152,0.008749293338327937,0.0018534178563375046,-0.006834769081440349,0.41318568057438915,2.6140378895481358
-5.373415928250121,0.04708312969073135,8.03055743166008,0.008749293338327937,0.0018534178563375046,-0.006834769081440349,0.41746256291332484,2.6035524745470995
-5.364666634911793,0.04893654754706885,8.02372266257864,0.008749293338327937,0.0018534178563375046,-0.006834769081440349,0.4176141348060656,2.6066236226209263
-5.355917341573465,0.050789965403406356,8.0168878934972,0.008749293338327937,0.0018534178563375046,-0.006834769081440349,0.41192920597280036,2.605414512559271
-5.347168048235138,0.05264338325974386,8.01005312441576,0.008749293338327937,0.0018534178563375046,-0.006834769081440349,0.4097788955504861,2.600136523157623
-5.33841875489681,0.054496801116081364,8.00321835533432,0.008749293338327937,0.0018534178563375046,-0.006834769081440349,0.40869507917322756,2.597266103367317
-5.329669461558482,0.05635021897241887,7.99638358625288,0.008749293338327937,0.0018534178563375046,-0.006834769081440349,0.40253545633346827,2.5979532694305663
-5.320920168220154,0.05820363682875637,7.989548817171439,0.008749293338327937,0.0018534178563375046,-0.006834769081440349,0.3983797996526982,2.5875312048097703
-5.312170874881827,0.060057054685093876,7.982714048089998,0.008749293338327937,0.0018534178563375046,-0.006834769081440349,0.3990661960246987,2.571227735965536
-5.303421581543499,0.06191047254143138,7.9758792790085575,0.008749293338327937,0.0018534178563375046,-0.006834769081440349,0.4017242556386451,2.555184986810912
-5.294672288205171,0.06376389039776889,7.969044509927117,0.008749293338327937,0.0018534178563375046,-0.006834769081440349,0.4070312049341716,2.5605190265277473
-5.285922994866843,0.0656173082541064,7.962209740845676,0.008749293338327937,0.0018534178563375046,-0.006834769081440349,0.4046489298650801,2.5447331267226616
-5.277173701528516,0.06747072611044391,7.955374971764235,0.008749293338327937,0.0018534178563375046,-0.006834769081440349,0.41481363020928974,2.5534894124786582
-5.268424408190188,0.06932414396678142,7.9485402026827945,0.008749293338327937,0.0018534178563375046,-0.006834769081440349,0.4081800093883689,2.5371733047063416
-5.25967511485186,0.07117756182311893,7.941705433601354,0.008749293338327937,0.0018534178563375046,-0.006834769081440349,0.4092211503797805,2.5305336813268386
-5.250925821513532,0.07303097967945645,7.934870664519913,0.008749293338327937,0.0018534178563375046,-0.006834769081440349,0.40032302731440295,2.5356464938936654
-5.242176528175205,0.07488439753579396,7.928035895438472,0.008749293338327937,0.0018534178563375046,-0.006834769081440349,0.3944762130036544,2.5328874691433567
-5.214181853515328,0.09216065856512247,7.941728027496866,0.027994674659877306,0.017276261029328513,0.013692132058393779,0.3968331067922263,2.536867280529907
-5.186187178855451,0.10943691959445098,7.955420159555259,0.027994674659877306,0.017276261029328513,0.013692132058393779,0.4006433981656244,2.540700536291787
-5.158192504195574,0.1267131806237795,7.969112291613652,0.027994674659877306,0.017276261029328513,0.013692132058393779,0.39438909342967104,2.550871823590017
-5.130197829535697,0.143989441653108,7.982804423672046,0.027994674659877306,0.017276261029328513,0.013692132058393779,0.395269910374668,2.5601603493063805
-5.10220315487582,0.1612657026824365,7.996496555730439,0.027994674659877306,0.017276261029328513,0.013692132058393779,0.39808111302810756,2.5530790582967975
-5.074208480215943,0.178541963711765,8.010188687788833,0.027994674659877306,0.017276261029328513,0.013692132058393779,0.39142232684783773,2.5525438345541214
-5.046213805556066,0.1958182247410935,8.023880819847227,0.027994674659877306,0.017276261029328513,0.013692132058393779,0.3934908199275825,2.5661330247733996
-5.018219130896189,0.213094485770422,8.03757295190562,0.027994674659877306,0.017276261029328513,0.013692132058393779,0.3951304829729128,2.5701264515245272
-4.990224456236312,0.2303707467997505,8.051265083964013,0.027994674659877306,0.017276261029328513,0.013692132058393779,0.4086288694562552,2.582136043460089
-4.962229781576435,0.247647007829079,8.064957216022407,0.027994674659877306,0.017276261029328513,0.013692132058393779,0.4143374014605303,2.574877618094068
-4.934235106916558,0.2649232688584075,8.0786493480808,0.027994674659877306,0.017276261029328513,0.013692132058393779,0.3998840247018466,2.5774209466804865
-4.9062404322566815,0.282199529887736,8.092341480139194,0.027994674659877306,0.017276261029328513,0.013692132058393779,0.40661215825032687,2.5685792933092255
-4.878245757596805,0.2994757909170645,8.106033612197587,0.027994674659877306,0.017276261029328513,0.013692132058393779,0.40532490499819496,2.5902819760655973
-4.850251082936928,0.316752051946393,8.11972574425598,0.027994674659877306,0.017276261029328513,0.013692132058393779,0.4006966299899644,2.5938639127963876
-4.822256408277051,0.3340283129757215,8.133417876314374,0.027994674659877306,0.017276261029328513,0.013692132058393779,0.40427489225131924,2.588358190903925
-4.794261733617174,0.35130457400505,8.147110008372767,0.027994674659877306,0.017276261029328513,0.013692132058393779,0.39310319843494684,2.57877695903616
-4.766267058957297,0.3685808350343785,8.16080214043116,0.027994674659877306,0.017276261029328513,0.013692132058393779,0.3950695899515528,2.5875504774624143
-4.73827238429742,0.385857096063707,8.174494272489554,0.027994674659877306,0.017276261029328513,0.013692132058393779,0.3930822749576632,2.5850992119618326
-4.710277709637543,0.4031333570930355,8.188186404547947,0.027994674659877306,0.017276261029328513,0.013692132058393779,0.39280779948422123,2.5877809879945883
-4.682283034977666,0.420409618122364,8.20187853660634,0.027994674659877306,0.017276261029328513,0.013692132058393779,0.39672047676477445,2.5978029530441487
-4.654288360317789,0.4376858791516925,8.215570668664734,0.027994674659877306,0.017276261029328513,0.013692132058393779,0.39437553328599056,2.6063821460058363
-4.626293685657912,0.454962140181021,8.229262800723127,0.027994674659877306,0.017276261029328513,0.013692132058393779,0.39824730461699925,2.601072055605563
-4.598299010998035,0.4722384012103495,8.24295493278152,0.027994674659877306,0.017276261029328513,0.013692132058393779,0.39596993183131135,2.5947072511262763
-4.570304336338158,0.489514662239678,8.256647064839914,0.027994674659877306,0.017276261029328513,0.013692132058393779,0.382702821168111,2.58736236321234
-4.542309661678281,0.5067909232690065,8.270339196898307,0.027994674659877306,0.017276261029328513,0.013692132058393779,0.38380568995154146,2.593542062642905
-4.5143149870184045,0.5240671842983351,8.2840313289567,0.027994674659877306,0.017276261029328513,0.013692132058393779,0.379840234118953,2.5929225069870303
-4.486320312358528,0.5413434453276637,8.297723461015094,0.027994674659877306,0.017276261029328513,0.013692132058393779,0.3809561682572579,2.5973915824836435
-4.458325637698651,0.5586197063569922,8.311415593073487,0.027994674659877306,0.017276261029328513,0.013692132058393779,0.3826026653222332,2.590180590221936
-4.430330963038774,0.5758959673863208,8.32510772513188,0.027994674659877306,0.017276261029328513,0.013692132058393779,0.3885636198173919,2.5896226302309695
-4.402336288378897,0.5931722284156493,8.338799857190274,0.027994674659877306,0.017276261029328513,0.013692132058393779,0.3841146441816207,2.589028100353636
-4.37434161371902,0.6104484894449779,8.352491989248668,0.027994674659877306,0.017276261029328513,0.013692132058393779,0.38938582243423675,2.588405300328061
-4.346346939059143,0.6277247504743064,8.366184121307061,0.027994674659877306,0.017276261029328513,0.013692132058393779,0.3800171012640132,2.5947634602821665
-4.318352264399266,0.645001011503635,8.379876253365454,0.027994674659877306,0.017276261029328513,0.013692132058393779,0.37577899094180195,2.604356457875659
-4.290357589739389,0.6622772725329635,8.393568385423848,0.027994674659877306,0.017276261029328513,0.013692132058393779,0.37461252790246724,2.6211269811915265
-4.262362915079512,0.6795535335622921,8.407260517482241,0.027994674659877306,0.017276261029328513,0.013692132058393779,0.3676678927644174,2.620544897889175
-4.234368240419635,0.6968297945916206,8.420952649540634,0.027994674659877306,0.017276261029328513,0.013692132058393779,0.3640770013060692,2.613533605410124
-4.206373565759758,0.7141060556209492,8.434644781599028,0.027994674659877306,0.017276261029328513,0.013692132058393779,0.3598230418650917,2.6096664086317927
-4.178378891099881,0.7313823166502778,8.448336913657421,0.027994674659877306,0.017276261029328513,0.013692132058393779,0.35996936886032943,2.6258086957740954
