theta,phi,z,dtheta,dphi,dz,ecg,eda
0.06518273126904997,0.00588920492295486,5.461959638207315,0.0,0.0,0.0,0.1872161428110553,0.34805550878260894
0.06764260850512904,0.005827669729112185,5.49467164771313,0.0024598772360790756,-6.15351938426752e-05,0.03271200950581509,0.1872161428110553,0.34805550878260894
0.07010248574120811,0.00576613453526951,5.5273836572189445,0.0024598772360790756,-6.15351938426752e-05,0.03271200950581509,0.1872161428110553,0.34805550878260894
0.07256236297728719,0.005704599341426835,5.560095666724759,0.0024598772360790756,-6.15351938426752e-05,0.03271200950581509,0.1872161428110553,0.34805550878260894
0.07502224021336626,0.00564306414758416,5.592807676230574,0.0024598772360790756,-6.15351938426752e-05,0.03271200950581509,0.1872161428110553,0.34805550878260894
0.07748211744944533,0.005581528953741485,5.625519685736389,0.0024598772360790756,-6.15351938426752e-05,0.03271200950581509,0.17953558103523562,0.34805550878260894
0.0799419946855244,0.00551999375989881,5.658231695242204,0.0024598772360790756,-6.15351938426752e-05,0.03271200950581509,0.20860862937016947,0.34805550878260894
0.08240187192160348,0.0054584585660561345,5.690943704748019,0.0024598772360790756,-6.15351938426752e-05,0.03271200950581509,0.20860862937016947,0.34805550878260894
0.08486174915768255,0.005396923372213459,5.723655714253834,0.0024598772360790756,-6.15351938426752e-05,0.03271200950581509,0.20860862937016947,0.34805550878260894
0.08732162639376162,0.005335388178370784,5.756367723759649,0.0024598772360790756,-6.15351938426752e-05,0.03271200950581509,0.20860862937016947,0.34805550878260894
0.08978150362984069,0.005273852984528109,5.7890797332654635,0.0024598772360790756,-6.15351938426752e-05,0.03271200950581509,0.21208956466507423,0.34805550878260894
0.09224138086591976,0.005212317790685434,5.821791742771278,0.0024598772360790756,-6.15351938426752e-05,0.03271200950581509,0.2083528301324834,0.34805550878260894
0.09470125810199884,0.005150782596842759,5.854503752277093,0.0024598772360790756,-6.15351938426752e-05,0.03271200950581509,0.2083528301324834,0.34805550878260894
0.09716113533807791,0.005089247403000084,5.887215761782908,0.0024598772360790756,-6.15351938426752e-05,0.03271200950581509,0.2083528301324834,0.34805550878260894
0.09962101257415698,0.0050277122091574086,5.919927771288723,0.0024598772360790756,-6.15351938426752e-05,0.03271200950581509,0.2083528301324834,0.34805550878260894
0.10208088981023605,0.004966177015314733,5.952639780794538,0.0024598772360790756,-6.15351938426752e-05,0.03271200950581509,0.2083528301324834,0.34805550878260894
0.10454076704631513,0.004904641821472058,5.985351790300353,0.0024598772360790756,-6.15351938426752e-05,0.03271200950581509,0.2083528301324834,0.34805550878260894
0.1070006442823942,0.004843106627629383,6.018063799806168,0.0024598772360790756,-6.15351938426752e-05,0.03271200950581509,0.2083528301324834,0.34805550878260894
0.10946052151847327,0.004781571433786708,6.050775809311983,0.0024598772360790756,-6.15351938426752e-05,0.03271200950581509,0.2083528301324834,0.34805550878260894
0.11192039875455234,0.004720036239944033,6.083487818817797,0.0024598772360790756,-6.15351938426752e-05,0.03271200950581509,0.2083528301324834,0.34805550878260894
0.11438027599063141,0.004658501046101358,6.116199828323612,0.0024598772360790756,-6.15351938426752e-05,0.03271200950581509,0.2083528301324834,0.34805550878260894
0.11684015322671049,0.004596965852258683,6.148911837829427,0.0024598772360790756,-6.15351938426752e-05,0.03271200950581509,0.2083528301324834,0.34805550878260894
0.11930003046278956,0.0045354306584160075,6.181623847335242,0.0024598772360790756,-6.15351938426752e-05,0.03271200950581509,0.21200847579034268,0.34805550878260894
0.12175990769886863,0.004473895464573332,6.214335856841057,0.0024598772360790756,-6.15351938426752e-05,0.03271200950581509,0.20817200622629353,0.34805550878260894
0.1242197849349477,0.004412360270730657,6.247047866346872,0.0024598772360790756,-6.15351938426752e-05,0.03271200950581509,0.20200798266237824,0.34805550878260894
0.12667966217102677,0.004350825076887982,6.279759875852687,0.0024598772360790756,-6.15351938426752e-05,0.03271200950581509,0.19508327523161692,0.34805550878260894
0.12913953940710585,0.004289289883045307,6.312471885358502,0.0024598772360790756,-6.15351938426752e-05,0.03271200950581509,0.1899622365127404,0.34805550878260894
0.13159941664318492,0.004227754689202632,6.345183894864316,0.0024598772360790756,-6.15351938426752e-05,0.03271200950581509,0.19369817260228211,0.34805550878260894
0.134059293879264,0.004166219495359957,6.377895904370131,0.0024598772360790756,-6.15351938426752e-05,0.03271200950581509,0.19532212079116965,0.34805550878260894
0.13651917111534306,0.0041046843015172816,6.410607913875946,0.0024598772360790756,-6.15351938426752e-05,0.03271200950581509,0.1919495339501443,0.34805550878260894
0.13897904835142214,0.004043149107674606,6.443319923381761,0.0024598772360790756,-6.15351938426752e-05,0.03271200950581509,0.18769173280111906,0.34805550878260894
0.1414389255875012,0.003981613913831931,6.476031932887576,0.0024598772360790756,-6.15351938426752e-05,0.03271200950581509,0.18540141299430474,0.34805550878260894
0.14389880282358028,0.003920078719989256,6.508743942393391,0.0024598772360790756,-6.15351938426752e-05,0.03271200950581509,0.18045175924933757,0.34805550878260894
0.14635868005965935,0.003858543526146581,6.541455951899206,0.0024598772360790756,-6.15351938426752e-05,0.03271200950581509,0.18185850145429483,0.34805550878260894
0.14881855729573842,0.003797008332303906,6.574167961405021,0.0024598772360790756,-6.15351938426752e-05,0.03271200950581509,0.18898106781931176,0.34805550878260894
0.13357111734979238,0.01015367449701975,6.559688200930603,-0.015247439945946044,0.006356666164715843,-0.01447976047441734,0.1805514032443083,0.34805550878260894
0.11832367740384633,0.016510340661735592,6.545208440456186,-0.015247439945946044,0.006356666164715843,-0.01447976047441734,0.18149170592622949,0.34805550878260894
0.10307623745790029,0.022867006826451434,6.5307286799817685,-0.015247439945946044,0.006356666164715843,-0.01447976047441734,0.18359088462522374,0.34805550878260894
0.08782879751195424,0.029223672991167276,6.516248919507351,-0.015247439945946044,0.006356666164715843,-0.01447976047441734,0.18727102249430636,0.34805550878260894
0.0725813575660082,0.03558033915588312,6.501769159032934,-0.015247439945946044,0.006356666164715843,-0.01447976047441734,0.19048432262709372,0.34805550878260894
0.05733391762006215,0.04193700532059896,6.4872893985585165,-0.015247439945946044,0.006356666164715843,-0.01447976047441734,0.18523156342835756,0.34805550878260894
0.04208647767411611,0.048293671485314806,6.472809638084099,-0.015247439945946044,0.006356666164715843,-0.01447976047441734,0.1794355935626442,0.34805550878260894
0.026839037728170062,0.05465033765003065,6.458329877609682,-0.015247439945946044,0.006356666164715843,-0.01447976047441734,0.182584342835841,0.34805550878260894
0.011591597782224019,0.06100700381474649,6.4438501171352645,-0.015247439945946044,0.006356666164715843,-0.01447976047441734,0.18687177702151578,0.34805550878260894
-0.003655842163722025,0.06736366997946233,6.429370356660847,-0.015247439945946044,0.006356666164715843,-0.01447976047441734,0.1877011017645469,0.34805550878260894
-0.018903282109668067,0.07372033614417818,6.41489059618643,-0.015247439945946044,0.006356666164715843,-0.01447976047441734,0.18608365738260485,0.34805550878260894
-0.03415072205561411,0.08007700230889403,6.400410835712012,-0.015247439945946044,0.006356666164715843,-0.01447976047441734,0.19634856469717665,0.34805550878260894
-0.04939816200156016,0.08643366847360988,6.385931075237595,-0.015247439945946044,0.006356666164715843,-0.01447976047441734,0.19472756094186477,0.34805550878260894
-0.11345328137948577,0.10027896625513079,6.423527868513304,-0.06405511937792562,0.013845297781520905,0.037596793275708605,0.19235633154460205,0.34805550878260894
-0.17750840075741137,0.1141242640366517,6.461124661789013,-0.06405511937792562,0.013845297781520905,0.037596793275708605,0.19470077834291927,0.34805550878260894
-0.241563520135337,0.1279695618181726,6.498721455064722,-0.06405511937792562,0.013845297781520905,0.037596793275708605,0.19768218999262055,0.34805550878260894
-0.3056186395132626,0.1418148595996935,6.5363182483404305,-0.06405511937792562,0.013845297781520905,0.037596793275708605,0.19480612001768632,0.34805550878260894
-0.36967375889118825,0.15566015738121441,6.573915041616139,-0.06405511937792562,0.013845297781520905,0.037596793275708605,0.19757959592157473,0.34805550878260894
-0.4337288782691139,0.16950545516273532,6.611511834891848,-0.06405511937792562,0.013845297781520905,0.037596793275708605,0.20666494799915436,0.34805550878260894
-0.4977839976470395,0.18335075294425623,6.649108628167557,-0.06405511937792562,0.013845297781520905,0.037596793275708605,0.2037180389245888,0.34805550878260894
-0.5618391170249651,0.19719605072577714,6.686705421443266,-0.06405511937792562,0.013845297781520905,0.037596793275708605,0.19907154314994557,0.34805550878260894
-0.6258942364028908,0.21104134850729805,6.724302214718975,-0.06405511937792562,0.013845297781520905,0.037596793275708605,0.20454220465858863,0.34805550878260894
-0.6899493557808164,0.22488664628881896,6.761899007994684,-0.06405511937792562,0.013845297781520905,0.037596793275708605,0.20010106484095308,0.34805550878260894
-0.754004475158742,0.23873194407033987,6.7994958012703925,-0.06405511937792562,0.013845297781520905,0.037596793275708605,0.1927695736452457,0.34805550878260894
-0.8180595945366677,0.25257724185186076,6.837092594546101,-0.06405511937792562,0.013845297781520905,0.037596793275708605,0.19258730263260324,0.34805550878260894
-0.8821147139145933,0.26642253963338164,6.87468938782181,-0.06405511937792562,0.013845297781520905,0.037596793275708605,0.19480557057639214,0.34805550878260894
-0.9461698332925189,0.2802678374149025,6.912286181097519,-0.06405511937792562,0.013845297781520905,0.037596793275708605,0.19406637123414391,0.34805550878260894
-1.0102249526704445,0.2941131351964234,6.949882974373228,-0.06405511937792562,0.013845297781520905,0.037596793275708605,0.19829852529588463,0.34805550878260894
-1.07428007204837,0.3079584329779443,6.987479767648937,-0.06405511937792562,0.013845297781520905,0.037596793275708605,0.19200644624265614,0.34805550878260894
-1.1383351914262956,0.32180373075946517,7.025076560924646,-0.06405511937792562,0.013845297781520905,0.037596793275708605,0.19201479076870104,0.34805550878260894
-1.202390310804221,0.33564902854098605,7.062673354200355,-0.06405511937792562,0.013845297781520905,0.037596793275708605,0.1928411854441321,0.34805550878260894
-1.2664454301821466,0.34949432632250693,7.100270147476063,-0.06405511937792562,0.013845297781520905,0.037596793275708605,0.19081376438152026,0.3505214902314581
-1.3305005495600721,0.3633396241040278,7.137866940751772,-0.06405511937792562,0.013845297781520905,0.037596793275708605,0.18129450837726932,0.3529909488239281
-1.3945556689379977,0.3771849218855487,7.175463734027481,-0.06405511937792562,0.013845297781520905,0.037596793275708605,0.18368193611464753,0.33893825476071543
-1.4586107883159232,0.3910302196670696,7.21306052730319,-0.06405511937792562,0.013845297781520905,0.037596793275708605,0.1803113233279189,0.34437630946110487
-1.5226659076938487,0.40487551744859046,7.250657320578899,-0.06405511937792562,0.013845297781520905,0.037596793275708605,0.17979532203905865,0.3386389898596184
-1.5867210270717742,0.41872081523011134,7.288254113854608,-0.06405511937792562,0.013845297781520905,0.037596793275708605,0.17545700292399183,0.3223306098472109
-1.6507761464496997,0.4325661130116322,7.325850907130317,-0.06405511937792562,0.013845297781520905,0.037596793275708605,0.1791161577823751,0.314641402541886
-1.7148312658276252,0.4464114107931531,7.3634477004060255,-0.06405511937792562,0.013845297781520905,0.037596793275708605,0.17677496468567114,0.29875786984725206
-1.7788863852055508,0.460256708574674,7.401044493681734,-0.06405511937792562,0.013845297781520905,0.037596793275708605,0.1753820276834423,0.2814050041858965
-1.8429415045834763,0.47410200635619487,7.438641286957443,-0.06405511937792562,0.013845297781520905,0.037596793275708605,0.17416129726812118,0.27546163560591214
-1.9069966239614018,0.48794730413771575,7.476238080233152,-0.06405511937792562,0.013845297781520905,0.037596793275708605,0.1795405022903811,0.27648876583248877
-1.9710517433393273,0.5017926019192367,7.513834873508861,-0.06405511937792562,0.013845297781520905,0.037596793275708605,0.17988041390400128,0.27918247174510746
-2.035106862717253,0.5156378997007576,7.55143166678457,-0.06405511937792562,0.013845297781520905,0.037596793275708605,0.17823597556447712,0.2640801271082334
-2.0991619820951786,0.5294831974822785,7.589028460060279,-0.06405511937792562,0.013845297781520905,0.037596793275708605,0.1779252815724472,0.2693805119176215
-2.163217101473104,0.5433284952637993,7.6266252533359875,-0.06405511937792562,0.013845297781520905,0.037596793275708605,0.17706008560831332,0.26306906802883484
-2.2272722208510296,0.5571737930453202,7.664222046611696,-0.06405511937792562,0.013845297781520905,0.037596793275708605,0.18409639136466993,0.26999907090665964
-2.291327340228955,0.5710190908268411,7.701818839887405,-0.06405511937792562,0.013845297781520905,0.037596793275708605,0.17542029117774818,0.263650525353245
-2.3553824596068806,0.584864388608362,7.739415633163114,-0.06405511937792562,0.013845297781520905,0.037596793275708605,0.17333258820107153,0.26739597926157227
-2.419437578984806,0.5987096863898829,7.777012426438823,-0.06405511937792562,0.013845297781520905,0.037596793275708605,0.16101848581794687,0.2637602236817793
-2.4834926983627317,0.6125549841714037,7.814609219714532,-0.06405511937792562,0.013845297781520905,0.037596793275708605,0.15701322177459753,0.26203342708656663
-2.547547817740657,0.6264002819529246,7.852206012990241,-0.06405511937792562,0.013845297781520905,0.037596793275708605,0.15819874937768005,0.26782694504387716
-2.6116029371185827,0.6402455797344455,7.8898028062659495,-0.06405511937792562,0.013845297781520905,0.037596793275708605,0.1568612995389819,0.24717170239652075
-2.6756580564965082,0.6540908775159664,7.927399599541658,-0.06405511937792562,0.013845297781520905,0.037596793275708605,0.15558778173747062,0.2515981099908536
-2.7397131758744337,0.6679361752974873,7.964996392817367,-0.06405511937792562,0.013845297781520905,0.037596793275708605,0.14897366087272765,0.237753391230191
-2.8037682952523593,0.6817814730790082,8.002593186093076,-0.06405511937792562,0.013845297781520905,0.037596793275708605,0.1458597262816874,0.2353961981540014
-2.867823414630285,0.695626770860529,8.040189979368785,-0.06405511937792562,0.013845297781520905,0.037596793275708605,0.1476130504168041,0.2438625959831849
-2.9318785340082103,0.7094720686420499,8.077786772644494,-0.06405511937792562,0.013845297781520905,0.037596793275708605,0.13722639371139525,0.2351193870137669
-2.995933653386136,0.7233173664235708,8.115383565920203,-0.06405511937792562,0.013845297781520905,0.037596793275708605,0.13356560921439983,0.22844841348906245
-3.0599887727640613,0.7371626642050917,8.152980359195912,-0.06405511937792562,0.013845297781520905,0.037596793275708605,0.13461001707692793,0.22657477578440446
-3.124043892141987,0.7510079619866126,8.19057715247162,-0.06405511937792562,0.013845297781520905,0.037596793275708605,0.13657480404935352,0.2117237598237181
-3.1880990115199124,0.7648532597681335,8.22817394574733,-0.06405511937792562,0.013845297781520905,0.037596793275708605,0.14688192557502947,0.21693095439052906
-3.252154130897838,0.7786985575496543,8.265770739023038,-0.06405511937792562,0.013845297781520905,0.037596793275708605,0.1448650459268263,0.20330158019351557
-3.3162092502757634,0.7925438553311752,8.303367532298747,-0.06405511937792562,0.013845297781520905,0.037596793275708605,0.14813159137793583,0.21679560476773663
-3.380264369653689,0.8063891531126961,8.340964325574456,-0.06405511937792562,0.013845297781520905,0.037596793275708605,0.14502893546250475,0.23566079391692102
-3.4443194890316144,0.820234450894217,8.378561118850165,-0.06405511937792562,0.013845297781520905,0.037596793275708605,0.1462260266250168,0.23460219037003255
-3.50837460840954,0.8340797486757379,8.416157912125874,-0.06405511937792562,0.013845297781520905,0.037596793275708605,0.15046831357261592,0.24784119660283616
-3.5724297277874655,0.8479250464572587,8.453754705401582,-0.06405511937792562,0.013845297781520905,0.037596793275708605,0.14975703554855038,0.23796638722866387
-3.636484847165391,0.8617703442387796,8.491351498677291,-0.06405511937792562,0.013845297781520905,0.037596793275708605,0.15965728193372256,0.22138315964830613
-3.7005399665433165,0.8756156420203005,8.528948291953,-0.06405511937792562,0.013845297781520905,0.037596793275708605,0.15632750953039687,0.20990910495457718
-3.7200959490971743,0.8536239823127673,8.579416124374234,-0.019555982553857834,-0.0219916597075332,0.05046783242123333,0.1498032540488315,0.23056031437093055
-3.739651931651032,0.831632322605234,8.629883956795467,-0.019555982553857834,-0.0219916597075332,0.05046783242123333,0.15383230135605555,0.2330785533653235
-3.75920791420489,0.8096406628977008,8.6803517892167,-0.019555982553857834,-0.0219916597075332,0.05046783242123333,0.16162353160536005,0.22895430915143658
-3.778763896758748,0.7876490031901675,8.730819621637934,-0.019555982553857834,-0.0219916597075332,0.05046783242123333,0.159748112158474,0.2272858348454113
-3.7983198793126056,0.7656573434826343,8.781287454059168,-0.019555982553857834,-0.0219916597075332,0.05046783242123333,0.16189521889221878,0.22511694719911532
-3.8178758618664634,0.743665683775101,8.831755286480401,-0.019555982553857834,-0.0219916597075332,0.05046783242123333,0.14830745489892394,0.2170081348044883
-3.8374318444203213,0.7216740240675678,8.882223118901635,-0.019555982553857834,-0.0219916597075332,0.05046783242123333,0.15218340575694642,0.2158849618685549
-3.856987826974179,0.6996823643600345,8.932690951322869,-0.019555982553857834,-0.0219916597075332,0.05046783242123333,0.15515316033136192,0.21105121732690016
-3.876543809528037,0.6776907046525013,8.983158783744102,-0.019555982553857834,-0.0219916597075332,0.05046783242123333,0.1399349323818379,0.2103871796379913
-3.8960997920818947,0.655699044944968,9.033626616165336,-0.019555982553857834,-0.0219916597075332,0.05046783242123333,0.14307375970240516,0.23499836443432048
-3.9156557746357525,0.6337073852374348,9.08409444858657,-0.019555982553857834,-0.0219916597075332,0.05046783242123333,0.1439993758350773,0.2599663248121498
-3.9352117571896104,0.6117157255299015,9.134562281007803,-0.019555982553857834,-0.0219916597075332,0.05046783242123333,0.13000927853289002,0.2589526780929849
-3.954767739743468,0.5897240658223682,9.185030113429036,-0.019555982553857834,-0.0219916597075332,0.05046783242123333,0.1289568625782686,0.24731235958445738
-3.974323722297326,0.567732406114835,9.23549794585027,-0.019555982553857834,-0.0219916597075332,0.05046783242123333,0.13023449446797875,0.2624845864282418
-3.993879704851184,0.5457407464073017,9.285965778271503,-0.019555982553857834,-0.0219916597075332,0.05046783242123333,0.12681472146988085,0.23599935100159686
-4.013435687405042,0.5237490866997685,9.336433610692737,-0.019555982553857834,-0.0219916597075332,0.05046783242123333,0.11982477619289479,0.2223980311991385
-4.0329916699589,0.5017574269922352,9.38690144311397,-0.019555982553857834,-0.0219916597075332,0.05046783242123333,0.11976631524753246,0.22675425454791753
-4.052547652512758,0.47976576728470205,9.437369275535204,-0.019555982553857834,-0.0219916597075332,0.05046783242123333,0.12254077331452111,0.22439581600882003
-4.072103635066616,0.45777410757716885,9.487837107956437,-0.019555982553857834,-0.0219916597075332,0.05046783242123333,0.11802844910839477,0.22935984934257161
-4.091659617620475,0.43578244786963566,9.538304940377671,-0.019555982553857834,-0.0219916597075332,0.05046783242123333,0.1194874054587083,0.2365206325631626
-4.111215600174333,0.41379078816210246,9.588772772798904,-0.019555982553857834,-0.0219916597075332,0.05046783242123333,0.1185157127931263,0.21281898752455264
-4.130771582728191,0.39179912845456927,9.639240605220138,-0.019555982553857834,-0.0219916597075332,0.05046783242123333,0.11156154783193417,0.2059240605813193
-4.1503275652820495,0.36980746874703607,9.689708437641372,-0.019555982553857834,-0.0219916597075332,0.05046783242123333,0.1183461941687737,0.2116010421809471
-4.2272243078608005,0.36581816020803165,9.631628978565606,-0.07689674257875115,-0.003989308539004446,-0.05807945907576542,0.12626781409145105,0.2000923473899788
-4.3041210504395515,0.36182885166902723,9.573549519489841,-0.07689674257875115,-0.003989308539004446,-0.05807945907576542,0.13464307593996655,0.197277413705163
-4.3810177930183025,0.3578395431300228,9.515470060414076,-0.07689674257875115,-0.003989308539004446,-0.05807945907576542,0.12784348293549352,0.17893955292966207
-4.4579145355970535,0.3538502345910184,9.45739060133831,-0.07689674257875115,-0.003989308539004446,-0.05807945907576542,0.12064019317868865,0.16626419998545616
-4.5348112781758045,0.34986092605201397,9.399311142262546,-0.07689674257875115,-0.003989308539004446,-0.05807945907576542,0.11479486574725511,0.17788316568121573
-4.6117080207545555,0.34587161751300954,9.34123168318678,-0.07689674257875115,-0.003989308539004446,-0.05807945907576542,0.12149056405134427,0.17644307580488033
-4.608107041170053,0.3390646337818146,9.407160263936637,0.0036009795845029506,-0.006806983731194942,0.06592858074985718,0.12398560700714592,0.16398406070446725
-4.60450606158555,0.3322576500506197,9.473088844686494,0.0036009795845029506,-0.006806983731194942,0.06592858074985718,0.12010379590672966,0.16833689756287967
-4.600905082001047,0.32545066631942476,9.53901742543635,0.0036009795845029506,-0.006806983731194942,0.06592858074985718,0.1267921652818074,0.16326937135911918
-4.597304102416544,0.31864368258822984,9.604946006186207,0.0036009795845029506,-0.006806983731194942,0.06592858074985718,0.1333372036487429,0.15562443863161993
-4.593703122832041,0.3118366988570349,9.670874586936064,0.0036009795845029506,-0.006806983731194942,0.06592858074985718,0.12946567142562126,0.17068850079442105
-4.590102143247538,0.30502971512584,9.73680316768592,0.0036009795845029506,-0.006806983731194942,0.06592858074985718,0.1241383715710447,0.1754183410735845
-4.586501163663035,0.29822273139464506,9.802731748435777,0.0036009795845029506,-0.006806983731194942,0.06592858074985718,0.132071054577206,0.1813206556461089
-4.582900184078532,0.29141574766345013,9.868660329185634,0.0036009795845029506,-0.006806983731194942,0.06592858074985718,0.13230712811985154,0.18435960997695405
-4.5792992044940295,0.2846087639322552,9.93458890993549,0.0036009795845029506,-0.006806983731194942,0.06592858074985718,0.1356872924002636,0.18282610806085065
-4.604125542379652,0.27017348117849205,9.897270073562542,-0.024826337885622593,-0.014435282753763169,-0.037318836372948784,0.12382579306863792,0.1999529072818224
-4.628951880265275,0.2557381984247289,9.859951237189593,-0.024826337885622593,-0.014435282753763169,-0.037318836372948784,0.12772499923957797,0.21516047409537986
-4.653778218150897,0.24130291567096573,9.822632400816644,-0.024826337885622593,-0.014435282753763169,-0.037318836372948784,0.13033872507991878,0.20437688786590222
-4.67860455603652,0.22686763291720258,9.785313564443696,-0.024826337885622593,-0.014435282753763169,-0.037318836372948784,0.12674475871585125,0.20522552118062076
-4.7034308939221425,0.21243235016343942,9.747994728070747,-0.024826337885622593,-0.014435282753763169,-0.037318836372948784,0.11993528032303963,0.21654430733335855
-4.728257231807765,0.19799706740967626,9.710675891697798,-0.024826337885622593,-0.014435282753763169,-0.037318836372948784,0.12862449726289085,0.20192939477968713
-4.753083569693388,0.1835617846559131,9.67335705532485,-0.024826337885622593,-0.014435282753763169,-0.037318836372948784,0.13140857911842366,0.21670318934772634
-4.77790990757901,0.16912650190214995,9.636038218951901,-0.024826337885622593,-0.014435282753763169,-0.037318836372948784,0.13202189660721522,0.2123575826505666
-4.802736245464633,0.1546912191483868,9.598719382578953,-0.024826337885622593,-0.014435282753763169,-0.037318836372948784,0.1286409647029279,0.19989222537939388
-4.827562583350256,0.14025593639462364,9.561400546206004,-0.024826337885622593,-0.014435282753763169,-0.037318836372948784,0.1271814626581594,0.18209242912684753
-4.852388921235878,0.12582065364086048,9.524081709833055,-0.024826337885622593,-0.014435282753763169,-0.037318836372948784,0.1199818733644099,0.1982407913507657
-4.877215259121501,0.11138537088709731,9.486762873460107,-0.024826337885622593,-0.014435282753763169,-0.037318836372948784,0.11045126320500086,0.20487938910356315
-4.902041597007123,0.09695008813333414,9.449444037087158,-0.024826337885622593,-0.014435282753763169,-0.037318836372948784,0.10730789290039833,0.20300907057252288
-4.926867934892746,0.08251480537957097,9.41212520071421,-0.024826337885622593,-0.014435282753763169,-0.037318836372948784,0.10106885729835018,0.20215627091628058
-4.951694272778369,0.0680795226258078,9.37480636434126,-0.024826337885622593,-0.014435282753763169,-0.037318836372948784,0.10274830937899247,0.20526181506235106
-4.976520610663991,0.05364423987204463,9.337487527968312,-0.024826337885622593,-0.014435282753763169,-0.037318836372948784,0.10075191637220621,0.1903935946467987
-5.001346948549614,0.03920895711828146,9.300168691595363,-0.024826337885622593,-0.014435282753763169,-0.037318836372948784,0.10713056884211498,0.19686173643455135
-5.026173286435236,0.024773674364518286,9.262849855222415,-0.024826337885622593,-0.014435282753763169,-0.037318836372948784,0.10755511721932248,0.19124644374173788
-5.050999624320859,0.010338391610755117,9.225531018849466,-0.024826337885622593,-0.014435282753763169,-0.037318836372948784,0.10628086432279311,0.18676434050009105
-5.075825962206482,-0.004096891143008052,9.188212182476517,-0.024826337885622593,-0.014435282753763169,-0.037318836372948784,0.10502601931422505,0.17607119841624114
-5.076503807326945,-0.0048425657147969856,9.237702280713874,-0.0006778451204625443,-0.0007456745717889339,0.049490098237357213,0.11156852903750125,0.1733873641273354
-5.077181652447408,-0.0055882402865859195,9.28719237895123,-0.0006778451204625443,-0.0007456745717889339,0.049490098237357213,0.11537066488378411,0.17357379602510517
-5.077859497567871,-0.006333914858374853,9.336682477188587,-0.0006778451204625443,-0.0007456745717889339,0.049490098237357213,0.1120773260617726,0.18890389354700912
-5.078537342688334,-0.007079589430163787,9.386172575425944,-0.0006778451204625443,-0.0007456745717889339,0.049490098237357213,0.11013438229554183,0.19969354809219375
-5.0792151878087965,-0.007825264001952721,9.4356626736633,-0.0006778451204625443,-0.0007456745717889339,0.049490098237357213,0.10050582752676604,0.21436419980516722
-5.0798930329292595,-0.008570938573741655,9.485152771900657,-0.0006778451204625443,-0.0007456745717889339,0.049490098237357213,0.10231351834153465,0.20821171028642782
-5.0805708780497225,-0.009316613145530589,9.534642870138013,-0.0006778451204625443,-0.0007456745717889339,0.049490098237357213,0.09995769192870722,0.1997369134666223
-5.0812487231701855,-0.010062287717319523,9.58413296837537,-0.0006778451204625443,-0.0007456745717889339,0.049490098237357213,0.10027127679746811,0.2153881870097792
-5.0819265682906485,-0.010807962289108457,9.633623066612726,-0.0006778451204625443,-0.0007456745717889339,0.049490098237357213,0.10859233778555132,0.21280088334505204
-5.0826044134111115,-0.01155363686089739,9.683113164850083,-0.0006778451204625443,-0.0007456745717889339,0.049490098237357213,0.11181505176668365,0.22899788182588726
-5.0832822585315744,-0.012299311432686325,9.732603263087439,-0.0006778451204625443,-0.0007456745717889339,0.049490098237357213,0.11548125854835888,0.24748652109405245
-5.083960103652037,-0.013044986004475258,9.782093361324796,-0.0006778451204625443,-0.0007456745717889339,0.049490098237357213,0.11551094516521686,0.25671838502420036
-5.0846379487725,-0.013790660576264192,9.831583459562152,-0.0006778451204625443,-0.0007456745717889339,0.049490098237357213,0.12067307053756196,0.2586545564289466
-5.085315793892963,-0.014536335148053126,9.881073557799509,-0.0006778451204625443,-0.0007456745717889339,0.049490098237357213,0.12239459458614539,0.27429419886111084
-5.085993639013426,-0.01528200971984206,9.930563656036865,-0.0006778451204625443,-0.0007456745717889339,0.049490098237357213,0.12202936180701304,0.2818141197348713
-5.083055282751445,-0.01790178124992483,9.911589323031489,0.0029383562619814804,-0.00261977153008277,-0.018974333005375727,0.11652833927155745,0.2740264596469062
-5.080116926489464,-0.0205215527800076,9.892614990026113,0.0029383562619814804,-0.00261977153008277,-0.018974333005375727,0.11321810908331321,0.2768968691985173
-5.077178570227483,-0.023141324310090368,9.873640657020736,0.0029383562619814804,-0.00261977153008277,-0.018974333005375727,0.10821137408628889,0.2703312628574345
-5.074240213965502,-0.025761095840173137,9.85466632401536,0.0029383562619814804,-0.00261977153008277,-0.018974333005375727,0.10593489387498757,0.2637693326043222
-5.071301857703521,-0.028380867370255906,9.835691991009984,0.0029383562619814804,-0.00261977153008277,-0.018974333005375727,0.10600419926568314,0.2589912875832304
-5.06836350144154,-0.031000638900338676,9.816717658004608,0.0029383562619814804,-0.00261977153008277,-0.018974333005375727,0.11122522787399246,0.26470138412500704
-5.065425145179558,-0.033620410430421445,9.797743324999232,0.0029383562619814804,-0.00261977153008277,-0.018974333005375727,0.10666386884036469,0.24523061561953638
-5.062486788917577,-0.036240181960504214,9.778768991993855,0.0029383562619814804,-0.00261977153008277,-0.018974333005375727,0.1131453585829153,0.23605158011407754
-5.059548432655596,-0.03885995349058698,9.75979465898848,0.0029383562619814804,-0.00261977153008277,-0.018974333005375727,0.1133976984069114,0.22274152668044453
-5.056610076393615,-0.04147972502066975,9.740820325983103,0.0029383562619814804,-0.00261977153008277,-0.018974333005375727,0.11810527778047174,0.22362065498827366
-5.053671720131634,-0.04409949655075252,9.721845992977727,0.0029383562619814804,-0.00261977153008277,-0.018974333005375727,0.1124240059132789,0.22341201810639608
-5.050733363869653,-0.04671926808083529,9.70287165997235,0.0029383562619814804,-0.00261977153008277,-0.018974333005375727,0.11693121767646017,0.2362806328278547
-5.047795007607672,-0.04933903961091806,9.683897326966974,0.0029383562619814804,-0.00261977153008277,-0.018974333005375727,0.12287021917471598,0.22994750503926178
-5.0448566513456905,-0.05195881114100083,9.664922993961598,0.0029383562619814804,-0.00261977153008277,-0.018974333005375727,0.12310007124239872,0.24198788512816752
-5.041918295083709,-0.0545785826710836,9.645948660956222,0.0029383562619814804,-0.00261977153008277,-0.018974333005375727,0.12587906392020756,0.23485399449943314
-5.038979938821728,-0.05719835420116637,9.626974327950846,0.0029383562619814804,-0.00261977153008277,-0.018974333005375727,0.13608337093496767,0.2173277710493338
-5.036041582559747,-0.05981812573124914,9.60799999494547,0.0029383562619814804,-0.00261977153008277,-0.018974333005375727,0.13274770444471704,0.2027082485421643
-5.033103226297766,-0.06243789726133191,9.589025661940093,0.0029383562619814804,-0.00261977153008277,-0.018974333005375727,0.12460827169239222,0.20870212524281329
-5.030164870035785,-0.06505766879141468,9.570051328934717,0.0029383562619814804,-0.00261977153008277,-0.018974333005375727,0.12112093655373839,0.21719421819029872
-5.027226513773804,-0.06767744032149746,9.551076995929341,0.0029383562619814804,-0.00261977153008277,-0.018974333005375727,0.11471258366094506,0.20746379359827571
-5.024288157511823,-0.07029721185158024,9.532102662923965,0.0029383562619814804,-0.00261977153008277,-0.018974333005375727,0.11263253180040128,0.19268277726452843
-5.021349801249841,-0.07291698338166301,9.513128329918588,0.0029383562619814804,-0.00261977153008277,-0.018974333005375727,0.10841327690022938,0.18949724894154438
-5.01841144498786,-0.07553675491174579,9.494153996913212,0.0029383562619814804,-0.00261977153008277,-0.018974333005375727,0.11076140294732084,0.19618027326058862
-5.015473088725879,-0.07815652644182856,9.475179663907836,0.0029383562619814804,-0.00261977153008277,-0.018974333005375727,0.10458665517110188,0.19284726331244387
-5.012534732463898,-0.08077629797191134,9.45620533090246,0.0029383562619814804,-0.00261977153008277,-0.018974333005375727,0.09942377743174068,0.19314738587728159
-5.009596376201917,-0.08339606950199412,9.437230997897084,0.0029383562619814804,-0.00261977153008277,-0.018974333005375727,0.09711428934458086,0.1937957640771844
-5.006658019939936,-0.08601584103207689,9.418256664891707,0.0029383562619814804,-0.00261977153008277,-0.018974333005375727,0.09923078926288345,0.19837375808755395
-5.003719663677955,-0.08863561256215967,9.399282331886331,0.0029383562619814804,-0.00261977153008277,-0.018974333005375727,0.09872595900665361,0.20260156397230886
-5.0007813074159735,-0.09125538409224244,9.380307998880955,0.0029383562619814804,-0.00261977153008277,-0.018974333005375727,0.1012370050070657,0.19259666041200565
-4.997842951153992,-0.09387515562232522,9.361333665875579,0.0029383562619814804,-0.00261977153008277,-0.018974333005375727,0.09960871886124059,0.18103207301072913
-4.994904594892011,-0.096494927152408,9.342359332870203,0.0029383562619814804,-0.00261977153008277,-0.018974333005375727,0.10566938090454234,0.17478127026110288
-4.99196623863003,-0.09911469868249077,9.323384999864826,0.0029383562619814804,-0.00261977153008277,-0.018974333005375727,0.1143420128994442,0.1846871392435035
-4.989027882368049,-0.10173447021257355,9.30441066685945,0.0029383562619814804,-0.00261977153008277,-0.018974333005375727,0.11525014473782882,0.1858725210536976
-4.986089526106068,-0.10435424174265633,9.285436333854074,0.0029383562619814804,-0.00261977153008277,-0.018974333005375727,0.10742028423674772,0.2022598591573681
-5.010322154707362,-0.10609021079153684,9.223230097275282,-0.02423262860129402,-0.0017359690488805107,-0.06220623657879226,0.1168072236139179,0.19312703728821792
-5.034554783308656,-0.10782617984041735,9.16102386069649,-0.02423262860129402,-0.0017359690488805107,-0.06220623657879226,0.12352422850829345,0.1983736195592136
-5.05878741190995,-0.10956214888929787,9.098817624117698,-0.02423262860129402,-0.0017359690488805107,-0.06220623657879226,0.12438800689216407,0.20012775338333721
-5.0830200405112445,-0.11129811793817838,9.036611387538906,-0.02423262860129402,-0.0017359690488805107,-0.06220623657879226,0.1191135093424832,0.20107246655032796
-5.107252669112539,-0.1130340869870589,8.974405150960115,-0.02423262860129402,-0.0017359690488805107,-0.06220623657879226,0.10913264693814649,0.18159510886740002
-5.131485297713833,-0.11477005603593941,8.912198914381323,-0.02423262860129402,-0.0017359690488805107,-0.06220623657879226,0.10283908488557773,0.18268392734090586
-5.155717926315127,-0.11650602508481993,8.84999267780253,-0.02423262860129402,-0.0017359690488805107,-0.06220623657879226,0.09912935932249554,0.1838553690380986
-5.179950554916421,-0.11824199413370044,8.787786441223739,-0.02423262860129402,-0.0017359690488805107,-0.06220623657879226,0.103855935626517,0.1813710797513875
-5.204183183517715,-0.11997796318258096,8.725580204644947,-0.02423262860129402,-0.0017359690488805107,-0.06220623657879226,0.10167687662782447,0.1832780254515993
-5.228415812119009,-0.12171393223146147,8.663373968066155,-0.02423262860129402,-0.0017359690488805107,-0.06220623657879226,0.09149768848573386,0.17301198144242305
-5.252648440720304,-0.12344990128034199,8.601167731487363,-0.02423262860129402,-0.0017359690488805107,-0.06220623657879226,0.08433687194030795,0.1626675573486527
-5.276881069321598,-0.1251858703292225,8.538961494908571,-0.02423262860129402,-0.0017359690488805107,-0.06220623657879226,0.08677988318760681,0.17791688039178769
-5.301113697922892,-0.126921839378103,8.47675525832978,-0.02423262860129402,-0.0017359690488805107,-0.06220623657879226,0.09020922297440057,0.1735361111726073
-5.325346326524186,-0.12865780842698352,8.414549021750988,-0.02423262860129402,-0.0017359690488805107,-0.06220623657879226,0.08209234178062234,0.16387368911133315
-5.34957895512548,-0.13039377747586403,8.352342785172196,-0.02423262860129402,-0.0017359690488805107,-0.06220623657879226,0.08209234178062234,0.1610622236684986
-5.373811583726774,-0.13212974652474455,8.290136548593404,-0.02423262860129402,-0.0017359690488805107,-0.06220623657879226,0.08880351557843373,0.15926028293575276
-5.3980442123280685,-0.13386571557362506,8.227930312014612,-0.02423262860129402,-0.0017359690488805107,-0.06220623657879226,0.08880351557843373,0.14483786679812344
-5.422276840929363,-0.13560168462250557,8.16572407543582,-0.02423262860129402,-0.0017359690488805107,-0.06220623657879226,0.08880351557843373,0.11788219043804174
-5.446509469530657,-0.1373376536713861,8.103517838857028,-0.02423262860129402,-0.0017359690488805107,-0.06220623657879226,0.08880351557843373,0.11343113469350456
-5.470742098131951,-0.1390736227202666,8.041311602278236,-0.02423262860129402,-0.0017359690488805107,-0.06220623657879226,0.08880351557843373,0.10361714311233008
-5.494974726733245,-0.14080959176914712,7.979105365699445,-0.02423262860129402,-0.0017359690488805107,-0.06220623657879226,0.09785329610010915,0.08905572305292517
-5.519207355334539,-0.14254556081802763,7.916899129120653,-0.02423262860129402,-0.0017359690488805107,-0.06220623657879226,0.09264629734680872,0.0893682134519481
-5.5434399839358335,-0.14428152986690815,7.854692892541861,-0.02423262860129402,-0.0017359690488805107,-0.06220623657879226,0.09264629734680872,0.07372236283032818
-5.567672612537128,-0.14601749891578866,7.792486655963069,-0.02423262860129402,-0.0017359690488805107,-0.06220623657879226,0.09059810813276706,0.08683017639151323
-5.591905241138422,-0.14775346796466918,7.730280419384277,-0.02423262860129402,-0.0017359690488805107,-0.06220623657879226,0.09059810813276706,0.0990008546270263
-5.616137869739716,-0.1494894370135497,7.668074182805485,-0.02423262860129402,-0.0017359690488805107,-0.06220623657879226,0.08096256922860592,0.09695351566730474
-5.64037049834101,-0.1512254060624302,7.605867946226693,-0.02423262860129402,-0.0017359690488805107,-0.06220623657879226,0.08823876905204509,0.10215731903126256
-5.664603126942304,-0.15296137511131072,7.5436617096479015,-0.02423262860129402,-0.0017359690488805107,-0.06220623657879226,0.08883974600427827,0.10356630708204102
-5.688835755543598,-0.15469734416019124,7.48145547306911,-0.02423262860129402,-0.0017359690488805107,-0.06220623657879226,0.09875834484490797,0.10079935711820594
-5.713068384144893,-0.15643331320907175,7.419249236490318,-0.02423262860129402,-0.0017359690488805107,-0.06220623657879226,0.09875834484490797,0.09867650589507206
-5.737301012746187,-0.15816928225795227,7.357042999911526,-0.02423262860129402,-0.0017359690488805107,-0.06220623657879226,0.1099981212534575,0.09521944724912394
-5.761533641347481,-0.15990525130683278,7.294836763332734,-0.02423262860129402,-0.0017359690488805107,-0.06220623657879226,0.10988610426553773,0.09454389541482174
-5.785766269948775,-0.1616412203557133,7.232630526753942,-0.02423262860129402,-0.0017359690488805107,-0.06220623657879226,0.10988610426553773,0.10570197897843658
-5.809998898550069,-0.1633771894045938,7.17042429017515,-0.02423262860129402,-0.0017359690488805107,-0.06220623657879226,0.11221640651852746,0.11498791847990478
-5.834231527151363,-0.16511315845347432,7.108218053596358,-0.02423262860129402,-0.0017359690488805107,-0.06220623657879226,0.11221640651852746,0.11802089796360683
-5.8584641557526576,-0.16684912750235484,7.0460118170175665,-0.02423262860129402,-0.0017359690488805107,-0.06220623657879226,0.12081183117536586,0.12881329421215398
-5.882696784353952,-0.16858509655123535,6.983805580438775,-0.02423262860129402,-0.0017359690488805107,-0.06220623657879226,0.12081183117536586,0.11567983122311237
-5.906929412955246,-0.17032106560011587,6.921599343859983,-0.02423262860129402,-0.0017359690488805107,-0.06220623657879226,0.12081183117536586,0.10714161336732275
-5.93116204155654,-0.17205703464899638,6.859393107281191,-0.02423262860129402,-0.0017359690488805107,-0.06220623657879226,0.11478367471883683,0.12456533732553961
-5.955394670157834,-0.1737930036978769,6.797186870702399,-0.02423262860129402,-0.0017359690488805107,-0.06220623657879226,0.12189361992780474,0.11732770556589403
-5.979627298759128,-0.1755289727467574,6.734980634123607,-0.02423262860129402,-0.0017359690488805107,-0.06220623657879226,0.12189361992780474,0.11287343432801544
-6.0038599273604225,-0.17726494179563793,6.672774397544815,-0.02423262860129402,-0.0017359690488805107,-0.06220623657879226,0.12183785133789518,0.11537469544486836
-6.028092555961717,-0.17900091084451844,6.610568160966023,-0.02423262860129402,-0.0017359690488805107,-0.06220623657879226,0.13087925815160392,0.12010038708270493
-6.052325184563011,-0.18073687989339896,6.5483619243872315,-0.02423262860129402,-0.0017359690488805107,-0.06220623657879226,0.13087925815160392,0.12555720717924188
-6.076557813164305,-0.18247284894227947,6.48615568780844,-0.02423262860129402,-0.0017359690488805107,-0.06220623657879226,0.13087925815160392,0.12355514979650448
-6.100790441765599,-0.18420881799115998,6.423949451229648,-0.02423262860129402,-0.0017359690488805107,-0.06220623657879226,0.13087925815160392,0.11991965318532048
-6.125023070366893,-0.1859447870400405,6.361743214650856,-0.02423262860129402,-0.0017359690488805107,-0.06220623657879226,0.13087925815160392,0.11688618552329803
-6.1492556989681875,-0.187680756088921,6.299536978072064,-0.02423262860129402,-0.0017359690488805107,-0.06220623657879226,0.1489226635862466,0.11567605612903027
-6.173488327569482,-0.18941672513780153,6.237330741493272,-0.02423262860129402,-0.0017359690488805107,-0.06220623657879226,0.1489226635862466,0.11715376327464566
-6.197720956170776,-0.19115269418668204,6.17512450491448,-0.02423262860129402,-0.0017359690488805107,-0.06220623657879226,0.14832721787026837,0.11156536927848507
-6.22195358477207,-0.19288866323556256,6.112918268335688,-0.02423262860129402,-0.0017359690488805107,-0.06220623657879226,0.14570113894676026,0.1037741182543923
-6.246186213373364,-0.19462463228444307,6.0507120317568965,-0.02423262860129402,-0.0017359690488805107,-0.06220623657879226,0.14972588751942334,0.11228433538683333
-6.270418841974658,-0.1963606013333236,5.988505795178105,-0.02423262860129402,-0.0017359690488805107,-0.06220623657879226,0.16917796247462732,0.11847364137190089
-6.294651470575952,-0.1980965703822041,5.926299558599313,-0.02423262860129402,-0.0017359690488805107,-0.06220623657879226,0.16917796247462732,0.12491820938620528
-6.318884099177247,-0.19983253943108462,5.864093322020521,-0.02423262860129402,-0.0017359690488805107,-0.06220623657879226,0.16917796247462732,0.13162319759203722
-6.343116727778541,-0.20156850847996513,5.801887085441729,-0.02423262860129402,-0.0017359690488805107,-0.06220623657879226,0.1719992997990212,0.1385937641516875
-6.367349356379835,-0.20330447752884565,5.739680848862937,-0.02423262860129402,-0.0017359690488805107,-0.06220623657879226,0.1753868871168219,0.14583506722744685
-6.391581984981129,-0.20504044657772616,5.677474612284145,-0.02423262860129402,-0.0017359690488805107,-0.06220623657879226,0.1753868871168219,0.153352264981606
-6.415814613582423,-0.20677641562660667,5.615268375705353,-0.02423262860129402,-0.0017359690488805107,-0.06220623657879226,0.1753868871168219,0.1611505155764557
-6.440047242183717,-0.2085123846754872,5.5530621391265615,-0.02423262860129402,-0.0017359690488805107,-0.06220623657879226,0.1753868871168219,0.16923497717428665
-6.4642798707850115,-0.2102483537243677,5.49085590254777,-0.02423262860129402,-0.0017359690488805107,-0.06220623657879226,0.17185533045959386,0.17761080793738962
-6.488512499386306,-0.21198432277324822,5.428649665968978,-0.02423262860129402,-0.0017359690488805107,-0.06220623657879226,0.17073928969446286,0.18628316602805536
-6.5127451279876,-0.21372029182212873,5.366443429390186,-0.02423262860129402,-0.0017359690488805107,-0.06220623657879226,0.18486761972574967,0.1952572096085746
-6.536977756588894,-0.21545626087100925,5.304237192811394,-0.02423262860129402,-0.0017359690488805107,-0.06220623657879226,0.18486761972574967,0.20453809684123808
-6.561210385190188,-0.21719222991988976,5.242030956232602,-0.02423262860129402,-0.0017359690488805107,-0.06220623657879226,0.18104339065032896,0.2141309858883365
-6.585443013791482,-0.21892819896877028,5.17982471965381,-0.02423262860129402,-0.0017359690488805107,-0.06220623657879226,0.1951418834652647,0.22404103491216068
-6.6096756423927765,-0.2206641680176508,5.117618483075018,-0.02423262860129402,-0.0017359690488805107,-0.06220623657879226,0.20389507982193286,0.2342734020750013
-6.633908270994071,-0.2224001370665313,5.055412246496227,-0.02423262860129402,-0.0017359690488805107,-0.06220623657879226,0.20907939926334254,0.2448332455391491
-6.658140899595365,-0.22413610611541182,4.993206009917435,-0.02423262860129402,-0.0017359690488805107,-0.06220623657879226,0.2065212845789453,0.25572572346689487
-6.682373528196659,-0.22587207516429234,4.930999773338643,-0.02423262860129402,-0.0017359690488805107,-0.06220623657879226,0.19816529955808382,0.2669559940205293
-6.706606156797953,-0.22760804421317285,4.868793536759851,-0.02423262860129402,-0.0017359690488805107,-0.06220623657879226,0.21093442231795995,0.2785292153623431
-6.730838785399247,-0.22934401326205336,4.806587300181059,-0.02423262860129402,-0.0017359690488805107,-0.06220623657879226,0.2247783645548435,0.2904505456546271
-6.7550714140005415,-0.23107998231093388,4.744381063602267,-0.02423262860129402,-0.0017359690488805107,-0.06220623657879226,0.21785310056876267,0.30272514305967196
-6.779304042601836,-0.2328159513598144,4.682174827023475,-0.02423262860129402,-0.0017359690488805107,-0.06220623657879226,0.22005307776949265,0.31535816573976844
-6.80353667120313,-0.2345519204086949,4.619968590444683,-0.02423262860129402,-0.0017359690488805107,-0.06220623657879226,0.24184558422182661,0.32835477185720735
-6.827769299804424,-0.23628788945757542,4.557762353865892,-0.02423262860129402,-0.0017359690488805107,-0.06220623657879226,0.24622612986341422,0.34172011957427934
-6.852001928405718,-0.23802385850645594,4.4955561172871,-0.02423262860129402,-0.0017359690488805107,-0.06220623657879226,0.2409231746490111,0.35545936705327513
-6.876234557007012,-0.23975982755533645,4.433349880708308,-0.02423262860129402,-0.0017359690488805107,-0.06220623657879226,0.24558113628482645,0.3695776724564856
-6.900467185608306,-0.24149579660421697,4.371143644129516,-0.02423262860129402,-0.0017359690488805107,-0.06220623657879226,0.24917718945404382,0.3840801939462013
-6.924699814209601,-0.24323176565309748,4.308937407550724,-0.02423262860129402,-0.0017359690488805107,-0.06220623657879226,0.2562939365995965,0.3989720896847132
-6.948932442810895,-0.244967734701978,4.246731170971932,-0.02423262860129402,-0.0017359690488805107,-0.06220623657879226,0.2477304337958927,0.4142585178343118
-6.973165071412189,-0.2467037037508585,4.18452493439314,-0.02423262860129402,-0.0017359690488805107,-0.06220623657879226,0.2617415731898798,0.429944636557288
-6.997397700013483,-0.24843967279973903,4.1223186978143485,-0.02423262860129402,-0.0017359690488805107,-0.06220623657879226,0.26553175327556905,0.44603560401593245
-7.021630328614777,-0.2501756418486195,4.060112461235557,-0.02423262860129402,-0.0017359690488805107,-0.06220623657879226,0.2702361825143156,0.4625365783725359
-7.045862957216071,-0.2519116108975,3.9979062246567643,-0.02423262860129402,-0.0017359690488805107,-0.06220623657879226,0.27632825173702275,0.47945271778938925
-7.0700955858173655,-0.25364757994638054,3.935699988077972,-0.02423262860129402,-0.0017359690488805107,-0.06220623657879226,0.2751430820239449,0.496789180428783
-7.09432821441866,-0.25538354899526106,3.8734937514991796,-0.02423262860129402,-0.0017359690488805107,-0.06220623657879226,0.27702695274793926,0.514551124453008
-7.118560843019954,-0.25711951804414157,3.8112875149203873,-0.02423262860129402,-0.0017359690488805107,-0.06220623657879226,0.28835753891314747,0.532743708024355
-7.142793471621248,-0.2588554870930221,3.749081278341595,-0.02423262860129402,-0.0017359690488805107,-0.06220623657879226,0.27996797476859625,0.5513720893051147
-7.167026100222542,-0.2605914561419026,3.6868750417628027,-0.02423262860129402,-0.0017359690488805107,-0.06220623657879226,0.3030215104475964,0.570441426457578
-7.191258728823836,-0.2623274251907831,3.6246688051840104,-0.02423262860129402,-0.0017359690488805107,-0.06220623657879226,0.29922575534585244,0.5899568776440353
-7.2154913574251305,-0.26406339423966363,3.562462568605218,-0.02423262860129402,-0.0017359690488805107,-0.06220623657879226,0.3163737198112089,0.6099236010267777
-7.239723986026425,-0.26579936328854414,3.5002563320264257,-0.02423262860129402,-0.0017359690488805107,-0.06220623657879226,0.32978803206760277,0.6303467547680958
-7.263956614627719,-0.26753533233742466,3.4380500954476334,-0.02423262860129402,-0.0017359690488805107,-0.06220623657879226,0.3325851078084231,0.6512314970302802
-7.288189243229013,-0.2692713013863052,3.375843858868841,-0.02423262860129402,-0.0017359690488805107,-0.06220623657879226,0.3469671429283215,0.6725829859756217
-7.273244101707335,-0.25738825363350154,3.361398916758182,0.014945141521678312,0.011883047752803653,-0.014444942110658767,0.3469671429283215,0.6944063797664113
-7.258298960185657,-0.24550520588069788,3.346953974647523,0.014945141521678312,0.011883047752803653,-0.014444942110658767,0.3469671429283215,0.7167068365649394
-7.243353818663979,-0.23362215812789422,3.3325090325368643,0.014945141521678312,0.011883047752803653,-0.014444942110658767,0.36112202616763206,0.739489514533497
-7.228408677142301,-0.22173911037509056,3.3180640904262053,0.014945141521678312,0.011883047752803653,-0.014444942110658767,0.35713879898141776,0.7627595718343746
-7.213463535620623,-0.2098560626222869,3.3036191483155464,0.014945141521678312,0.011883047752803653,-0.014444942110658767,0.362367328457436,0.7865221666298632
-7.1985183940989454,-0.19797301486948324,3.2891742062048874,0.014945141521678312,0.011883047752803653,-0.014444942110658767,0.362367328457436,0.8107824570822537
-7.1835732525772675,-0.18608996711667958,3.2747292640942285,0.014945141521678312,0.011883047752803653,-0.014444942110658767,0.362367328457436,0.8355456013538364
-7.16862811105559,-0.17420691936387592,3.2602843219835695,0.014945141521678312,0.011883047752803653,-0.014444942110658767,0.3625485125134791,0.860816757606902
-7.153682969533912,-0.16232387161107226,3.2458393798729106,0.014945141521678312,0.011883047752803653,-0.014444942110658767,0.362754320756544,0.8866010840037414
-7.138737828012234,-0.1504408238582686,3.2313944377622517,0.014945141521678312,0.011883047752803653,-0.014444942110658767,0.38323661968306005,0.9129037387066457
-7.123792686490556,-0.13855777610546494,3.2169494956515927,0.014945141521678312,0.011883047752803653,-0.014444942110658767,0.38323661968306005,0.9397298798779053
-7.108847544968878,-0.12667472835266128,3.2025045535409338,0.014945141521678312,0.011883047752803653,-0.014444942110658767,0.38323661968306005,0.9670846656798107
-7.0939024034472,-0.11479168059985762,3.188059611430275,0.014945141521678312,0.011883047752803653,-0.014444942110658767,0.38323661968306005,0.9949732542746528
-7.078957261925522,-0.10290863284705395,3.173614669319616,0.014945141521678312,0.011883047752803653,-0.014444942110658767,0.38323661968306005,1.0234008038247226
-7.064012120403844,-0.0910255850942503,3.159169727208957,0.014945141521678312,0.011883047752803653,-0.014444942110658767,0.37499001130603704,1.052372472492311
-7.049066978882166,-0.07914253734144663,3.144724785098298,0.014945141521678312,0.011883047752803653,-0.014444942110658767,0.3757118199528038,1.0591783926398652
-7.034121837360488,-0.06725948958864297,3.130279842987639,0.014945141521678312,0.011883047752803653,-0.014444942110658767,0.36772864035791,1.0660139953507395
-7.01917669583881,-0.05537644183583932,3.11583490087698,0.014945141521678312,0.011883047752803653,-0.014444942110658767,0.36772864035791,1.0728793452112682
-7.0042315543171325,-0.043493394083035666,3.101389958766321,0.014945141521678312,0.011883047752803653,-0.014444942110658767,0.36772864035791,1.079774506807785
-6.989286412795455,-0.03161034633023201,3.0869450166556622,0.014945141521678312,0.011883047752803653,-0.014444942110658767,0.36515392946572695,1.086699544726625
-6.974341271273777,-0.01972729857742836,3.0725000745450033,0.014945141521678312,0.011883047752803653,-0.014444942110658767,0.37772194424539146,1.0936545235541222
-6.959396129752099,-0.007844250824624706,3.0580551324343443,0.014945141521678312,0.011883047752803653,-0.014444942110658767,0.3904968446340344,1.100639507876611
-6.944450988230421,0.004038796928178948,3.0436101903236854,0.014945141521678312,0.011883047752803653,-0.014444942110658767,0.3904968446340344,1.107654562280425
-6.929505846708743,0.0159218446809826,3.0291652482130265,0.014945141521678312,0.011883047752803653,-0.014444942110658767,0.38930177752618755,1.1146997513518997
-6.914560705187065,0.027804892433786255,3.0147203061023675,0.014945141521678312,0.011883047752803653,-0.014444942110658767,0.38930177752618755,1.1217751396773685
-6.899615563665387,0.03968794018658991,3.0002753639917086,0.014945141521678312,0.011883047752803653,-0.014444942110658767,0.3862354200382564,1.1288807918431658
-6.884670422143709,0.05157098793939356,2.9858304218810496,0.014945141521678312,0.011883047752803653,-0.014444942110658767,0.381713652423546,1.1360167724356263
-6.869725280622031,0.06345403569219721,2.9713854797703907,0.014945141521678312,0.011883047752803653,-0.014444942110658767,0.40065617458531244,1.143183146041084
-6.854780139100353,0.07533708344500087,2.9569405376597317,0.014945141521678312,0.011883047752803653,-0.014444942110658767,0.40065617458531244,1.1503799772458732
-6.839834997578675,0.08722013119780453,2.942495595549073,0.014945141521678312,0.011883047752803653,-0.014444942110658767,0.3943312436043806,1.1576073306363284
-6.8248898560569975,0.09910317895060819,2.928050653438414,0.014945141521678312,0.011883047752803653,-0.014444942110658767,0.3943312436043806,1.1648652707987839
-6.80994471453532,0.11098622670341185,2.913605711327755,0.014945141521678312,0.011883047752803653,-0.014444942110658767,0.4015967567575817,1.1721538623195735
-6.794999573013642,0.12286927445621551,2.899160769217096,0.014945141521678312,0.011883047752803653,-0.014444942110658767,0.3920364407065935,1.179473169785032
-6.780054431491964,0.13475232220901917,2.884715827106437,0.014945141521678312,0.011883047752803653,-0.014444942110658767,0.40162491785972115,1.1868232577814937
-6.765109289970286,0.14663536996182283,2.870270884995778,0.014945141521678312,0.011883047752803653,-0.014444942110658767,0.40162491785972115,1.1942041908952927
-6.750164148448608,0.1585184177146265,2.855825942885119,0.014945141521678312,0.011883047752803653,-0.014444942110658767,0.3933082024133637,1.2016160337127635
-6.73521900692693,0.17040146546743015,2.84138100077446,0.014945141521678312,0.011883047752803653,-0.014444942110658767,0.38718881673619454,1.2090588508202402
-6.720273865405252,0.1822845132202338,2.8269360586638013,0.014945141521678312,0.011883047752803653,-0.014444942110658767,0.4165240517634258,1.216532706804057
-6.705328723883574,0.19416756097303747,2.8124911165531423,0.014945141521678312,0.011883047752803653,-0.014444942110658767,0.4207672986178375,1.2240376662505486
-6.690383582361896,0.20605060872584113,2.7980461744424834,0.014945141521678312,0.011883047752803653,-0.014444942110658767,0.4207672986178375,1.231573793746049
-6.675438440840218,0.2179336564786448,2.7836012323318244,0.014945141521678312,0.011883047752803653,-0.014444942110658767,0.4207672986178375,1.2391411538768924
-6.66049329931854,0.22981670423144845,2.7691562902211655,0.014945141521678312,0.011883047752803653,-0.014444942110658767,0.4207672986178375,1.2467398112294137
-6.6455481577968625,0.24169975198425211,2.7547113481105066,0.014945141521678312,0.011883047752803653,-0.014444942110658767,0.4148567650214225,1.2543698303899464
-6.630603016275185,0.2535827997370558,2.7402664059998476,0.014945141521678312,0.011883047752803653,-0.014444942110658767,0.4052743847863331,1.2620312759448253
-6.615657874753507,0.2654658474898594,2.7258214638891887,0.014945141521678312,0.011883047752803653,-0.014444942110658767,0.39576266635455015,1.2697242124803847
-6.600712733231829,0.27734889524266304,2.7113765217785297,0.014945141521678312,0.011883047752803653,-0.014444942110658767,0.41301697748318156,1.2774487045829588
-6.585767591710151,0.2892319429954667,2.696931579667871,0.014945141521678312,0.011883047752803653,-0.014444942110658767,0.4206934203650961,1.2852048168388817
-6.570822450188473,0.3011149907482703,2.682486637557212,0.014945141521678312,0.011883047752803653,-0.014444942110658767,0.419697278680221,1.292992613834488
-6.555877308666795,0.31299803850107394,2.668041695446553,0.014945141521678312,0.011883047752803653,-0.014444942110658767,0.41482539554967945,1.3008121601561118
-6.540932167145117,0.32488108625387757,2.653596753335894,0.014945141521678312,0.011883047752803653,-0.014444942110658767,0.4133892175294659,1.3086635203900876
-6.525987025623439,0.3367641340066812,2.639151811225235,0.014945141521678312,0.011883047752803653,-0.014444942110658767,0.41676164900106083,1.3165467591227498
-6.511041884101761,0.34864718175948484,2.624706869114576,0.014945141521678312,0.011883047752803653,-0.014444942110658767,0.41676164900106083,1.3244619409404321
-6.496096742580083,0.36053022951228847,2.610261927003917,0.014945141521678312,0.011883047752803653,-0.014444942110658767,0.41676164900106083,1.3324091304294694
-6.481151601058405,0.3724132772650921,2.595816984893258,0.014945141521678312,0.011883047752803653,-0.014444942110658767,0.41782334075686317,1.3403883921761957
-6.4662064595367275,0.38429632501789573,2.5813720427825992,0.014945141521678312,0.011883047752803653,-0.014444942110658767,0.42665566211297873,1.3483997907669456
-6.4512613180150495,0.39617937277069937,2.5669271006719403,0.014945141521678312,0.011883047752803653,-0.014444942110658767,0.43814407059246896,1.3564433907880529
-6.436316176493372,0.408062420523503,2.5524821585612814,0.014945141521678312,0.011883047752803653,-0.014444942110658767,0.44057651462642233,1.3645192568258522
-6.421371034971694,0.41994546827630663,2.5380372164506224,0.014945141521678312,0.011883047752803653,-0.014444942110658767,0.44057651462642233,1.3726274534666782
-6.406425893450016,0.43182851602911027,2.5235922743399635,0.014945141521678312,0.011883047752803653,-0.014444942110658767,0.43731304799500526,1.3807680452968645
-6.391480751928338,0.4437115637819139,2.5091473322293045,0.014945141521678312,0.011883047752803653,-0.014444942110658767,0.43731304799500526,1.3889410969027456
-6.37653561040666,0.45559461153471753,2.4947023901186456,0.014945141521678312,0.011883047752803653,-0.014444942110658767,0.42797707826592735,1.397146672870656
-6.361590468884982,0.46747765928752116,2.4802574480079866,0.014945141521678312,0.011883047752803653,-0.014444942110658767,0.4213185455204653,1.40538483778693
-6.346645327363304,0.4793607070403248,2.4658125058973277,0.014945141521678312,0.011883047752803653,-0.014444942110658767,0.4218088396705625,1.4136556562379017
-6.331700185841626,0.49124375479312843,2.4513675637866688,0.014945141521678312,0.011883047752803653,-0.014444942110658767,0.4139870506311042,1.4219591928099056
-6.316755044319948,0.5031268025459321,2.43692262167601,0.014945141521678312,0.011883047752803653,-0.014444942110658767,0.44057182687508534,1.4302955120892757
-6.30180990279827,0.5150098502987358,2.422477679565351,0.014945141521678312,0.011883047752803653,-0.014444942110658767,0.4427040538704403,1.4386646786623467
-6.286864761276592,0.5268928980515395,2.408032737454692,0.014945141521678312,0.011883047752803653,-0.014444942110658767,0.4427040538704403,1.4470667571154527
-6.2719196197549145,0.5387759458043432,2.393587795344033,0.014945141521678312,0.011883047752803653,-0.014444942110658767,0.4427040538704403,1.4555018120349281
-6.256974478233237,0.5506589935571469,2.379142853233374,0.014945141521678312,0.011883047752803653,-0.014444942110658767,0.43705737648819826,1.463969908007107
-6.242029336711559,0.5625420413099506,2.364697911122715,0.014945141521678312,0.011883047752803653,-0.014444942110658767,0.4585891206988251,1.4724711096183236
-6.227084195189881,0.5744250890627542,2.350252969012056,0.014945141521678312,0.011883047752803653,-0.014444942110658767,0.4585891206988251,1.4810054814549127
-6.212139053668203,0.5863081368155579,2.335808026901397,0.014945141521678312,0.011883047752803653,-0.014444942110658767,0.449095167544659,1.489573088103208
-6.197193912146525,0.5981911845683616,2.3213630847907383,0.014945141521678312,0.011883047752803653,-0.014444942110658767,0.449095167544659,1.4981739941495444
-6.182248770624847,0.6100742323211653,2.3069181426800793,0.014945141521678312,0.011883047752803653,-0.014444942110658767,0.449095167544659,1.5068082641802558
-6.167303629103169,0.621957280073969,2.2924732005694204,0.014945141521678312,0.011883047752803653,-0.014444942110658767,0.4461434627863804,1.5154759627816767
-6.152358487581491,0.6338403278267727,2.2780282584587614,0.014945141521678312,0.011883047752803653,-0.014444942110658767,0.4547821348233494,1.5241771545401412
-6.137413346059813,0.6457233755795764,2.2635833163481025,0.014945141521678312,0.011883047752803653,-0.014444942110658767,0.4547821348233494,1.5329119040419839
-6.122468204538135,0.6576064233323801,2.2491383742374436,0.014945141521678312,0.011883047752803653,-0.014444942110658767,0.45766860656849745,1.5416802758735386
-6.107523063016457,0.6694894710851838,2.2346934321267846,0.014945141521678312,0.011883047752803653,-0.014444942110658767,0.45766860656849745,1.5504823346211403
-6.0925779214947795,0.6813725188379874,2.2202484900161257,0.014945141521678312,0.011883047752803653,-0.014444942110658767,0.45316089279742156,1.5593181448711226
-6.077632779973102,0.6932555665907911,2.2058035479054667,0.014945141521678312,0.011883047752803653,-0.014444942110658767,0.45316089279742156,1.5681877712098202
-6.062687638451424,0.7051386143435948,2.191358605794808,0.014945141521678312,0.011883047752803653,-0.014444942110658767,0.44911194454518055,1.5770912782235673
-6.047742496929746,0.7170216620963985,2.176913663684149,0.014945141521678312,0.011883047752803653,-0.014444942110658767,0.44911194454518055,1.5860287304986984
-6.032797355408068,0.7289047098492022,2.16246872157349,0.014945141521678312,0.011883047752803653,-0.014444942110658767,0.45723732322224975,1.5950001926215476
-6.01785221388639,0.7407877576020059,2.148023779462831,0.014945141521678312,0.011883047752803653,-0.014444942110658767,0.47802286959820395,1.604005729178449
-6.002907072364712,0.7526708053548096,2.133578837352172,0.014945141521678312,0.011883047752803653,-0.014444942110658767,0.4683518705962473,1.6130454047557372
-6.070195734626254,0.7605030924101229,2.193733544989987,-0.06728866226154173,0.00783228705531339,0.06015470763781469,0.5030898290810085,1.6221192839397467
-6.137484396887796,0.7683353794654363,2.2538882526278017,-0.06728866226154173,0.00783228705531339,0.06015470763781469,0.5030898290810085,1.6312274313168111
-6.204773059149338,0.7761676665207496,2.3140429602656165,-0.06728866226154173,0.00783228705531339,0.06015470763781469,0.5030898290810085,1.6403699114732655
-6.27206172141088,0.783999953576063,2.3741976679034313,-0.06728866226154173,0.00783228705531339,0.06015470763781469,0.5030898290810085,1.6495467889954436
-6.339350383672422,0.7918322406313764,2.434352375541246,-0.06728866226154173,0.00783228705531339,0.06015470763781469,0.5030898290810085,1.65875812846968
-6.406639045933964,0.7996645276866897,2.494507083179061,-0.06728866226154173,0.00783228705531339,0.06015470763781469,0.5030898290810085,1.6680039944823088
-6.4739277081955064,0.8074968147420031,2.554661790816876,-0.06728866226154173,0.00783228705531339,0.06015470763781469,0.5030898290810085,1.6772844516196646
-6.5412163704570485,0.8153291017973164,2.6148164984546907,-0.06728866226154173,0.00783228705531339,0.06015470763781469,0.5030898290810085,1.6865995644680813
-6.608505032718591,0.8231613888526298,2.6749712060925055,-0.06728866226154173,0.00783228705531339,0.06015470763781469,0.5030898290810085,1.6959493976138937
-6.675793694980133,0.8309936759079432,2.7351259137303203,-0.06728866226154173,0.00783228705531339,0.06015470763781469,0.5030898290810085,1.705334015643436
-6.743082357241675,0.8388259629632565,2.795280621368135,-0.06728866226154173,0.00783228705531339,0.06015470763781469,0.5030898290810085,1.714753483143042
-6.810371019503217,0.8466582500185699,2.85543532900595,-0.06728866226154173,0.00783228705531339,0.06015470763781469,0.5077049680526665,1.7242078646990464
-6.877659681764759,0.8544905370738832,2.915590036643765,-0.06728866226154173,0.00783228705531339,0.06015470763781469,0.5047148686368443,1.7336972248977833
-6.944948344026301,0.8623228241291966,2.9757447442815796,-0.06728866226154173,0.00783228705531339,0.06015470763781469,0.5026554875157926,1.7432216283255872
-7.012237006287843,0.8701551111845099,3.0358994519193945,-0.06728866226154173,0.00783228705531339,0.06015470763781469,0.5000689144494618,1.7527811395687927
-7.079525668549385,0.8779873982398233,3.0960541595572093,-0.06728866226154173,0.00783228705531339,0.06015470763781469,0.5040449711745979,1.7527811395687927
-7.146814330810927,0.8858196852951367,3.156208867195024,-0.06728866226154173,0.00783228705531339,0.06015470763781469,0.5070186631138485,1.7527811395687927
-7.214102993072469,0.89365197235045,3.216363574832839,-0.06728866226154173,0.00783228705531339,0.06015470763781469,0.5042869338900378,1.7527811395687927
-7.281391655334011,0.9014842594057634,3.276518282470654,-0.06728866226154173,0.00783228705531339,0.06015470763781469,0.508150382745402,1.7527811395687927
-7.348680317595553,0.9093165464610767,3.3366729901084686,-0.06728866226154173,0.00783228705531339,0.06015470763781469,0.5105219473168475,1.7527811395687927
-7.415968979857095,0.9171488335163901,3.3968276977462835,-0.06728866226154173,0.00783228705531339,0.06015470763781469,0.5171507155311856,1.7527811395687927
-7.483257642118637,0.9249811205717035,3.4569824053840983,-0.06728866226154173,0.00783228705531339,0.06015470763781469,0.5218044373784833,1.7527811395687927
-7.5505463043801795,0.9328134076270168,3.517137113021913,-0.06728866226154173,0.00783228705531339,0.06015470763781469,0.5306808736597999,1.7527811395687927
-7.6178349666417216,0.9406456946823302,3.577291820659728,-0.06728866226154173,0.00783228705531339,0.06015470763781469,0.52909918245908,1.7527811395687927
-7.685123628903264,0.9484779817376435,3.637446528297543,-0.06728866226154173,0.00783228705531339,0.06015470763781469,0.5264159570682142,1.7527811395687927
-7.752412291164806,0.9563102687929569,3.6976012359353576,-0.06728866226154173,0.00783228705531339,0.06015470763781469,0.5183391596067413,1.7435052177394792
-7.819700953426348,0.9641425558482702,3.7577559435731724,-0.06728866226154173,0.00783228705531339,0.06015470763781469,0.5148127172506477,1.7528488118805527
-7.88698961568789,0.9719748429035836,3.8179106512109873,-0.06728866226154173,0.00783228705531339,0.06015470763781469,0.5092706520865882,1.7449649749499139
-7.954278277949432,0.979807129958897,3.878065358848802,-0.06728866226154173,0.00783228705531339,0.06015470763781469,0.5116458153756336,1.7249173878905437
-8.021566940210974,0.9876394170142103,3.938220066486617,-0.06728866226154173,0.00783228705531339,0.06015470763781469,0.5146304227779063,1.7242037208224095
-8.088855602472515,0.9954717040695237,3.9983747741244318,-0.06728866226154173,0.00783228705531339,0.06015470763781469,0.5128090187707254,1.7368408814699792
-8.156144264734056,1.0033039911248371,4.058529481762246,-0.06728866226154173,0.00783228705531339,0.06015470763781469,0.5126010069213832,1.7295311868521008
-8.223432926995597,1.0111362781801505,4.118684189400061,-0.06728866226154173,0.00783228705531339,0.06015470763781469,0.5084613244378449,1.7243068011765008
-8.290721589257139,1.0189685652354639,4.178838897037876,-0.06728866226154173,0.00783228705531339,0.06015470763781469,0.5137027312263526,1.716015960700203
-8.35801025151868,1.0268008522907772,4.238993604675691,-0.06728866226154173,0.00783228705531339,0.06015470763781469,0.5105727421185964,1.7204553306803594
-8.425298913780221,1.0346331393460906,4.2991483123135055,-0.06728866226154173,0.00783228705531339,0.06015470763781469,0.5193972737576698,1.7321778133037251
-8.492587576041762,1.042465426401404,4.35930301995132,-0.06728866226154173,0.00783228705531339,0.06015470763781469,0.5132997013224289,1.7504777680397927
-8.559876238303303,1.0502977134567173,4.419457727589135,-0.06728866226154173,0.00783228705531339,0.06015470763781469,0.5103093279736753,1.7531535713438935
-8.627164900564845,1.0581300005120307,4.47961243522695,-0.06728866226154173,0.00783228705531339,0.06015470763781469,0.5058213035197628,1.7456102826751736
-8.694453562826386,1.065962287567344,4.539767142864765,-0.06728866226154173,0.00783228705531339,0.06015470763781469,0.5089723089414878,1.750309585275396
-8.761742225087927,1.0737945746226574,4.59992185050258,-0.06728866226154173,0.00783228705531339,0.06015470763781469,0.5051273993638348,1.7492686271726223
-8.764194681019044,1.074042500310475,4.639929404933503,-0.002452455931116266,0.0002479256878176892,0.040007554430923145,0.4981125348807952,1.7706019702313531
-8.76664713695016,1.0742904259982926,4.679936959364427,-0.002452455931116266,0.0002479256878176892,0.040007554430923145,0.4897263953758885,1.7762379072695555
-8.769099592881277,1.0745383516861102,4.71994451379535,-0.002452455931116266,0.0002479256878176892,0.040007554430923145,0.4992609889691281,1.7727206479283508
-8.771552048812394,1.0747862773739278,4.759952068226274,-0.002452455931116266,0.0002479256878176892,0.040007554430923145,0.49490583501515445,1.7582826236128681
-8.77400450474351,1.0750342030617455,4.799959622657197,-0.002452455931116266,0.0002479256878176892,0.040007554430923145,0.4934824932573204,1.7759876050983647
-8.776456960674627,1.075282128749563,4.839967177088121,-0.002452455931116266,0.0002479256878176892,0.040007554430923145,0.4928778440394688,1.7618068294358198
-8.778909416605744,1.0755300544373807,4.879974731519044,-0.002452455931116266,0.0002479256878176892,0.040007554430923145,0.492802483736331,1.7494057709910367
-8.781361872536861,1.0757779801251983,4.919982285949968,-0.002452455931116266,0.0002479256878176892,0.040007554430923145,0.4972379280066272,1.7521216172653193
-8.783814328467978,1.076025905813016,4.959989840380891,-0.002452455931116266,0.0002479256878176892,0.040007554430923145,0.49642213389348805,1.7375295605443426
-8.786266784399094,1.0762738315008336,4.999997394811815,-0.002452455931116266,0.0002479256878176892,0.040007554430923145,0.4997137120876288,1.7469502787946882
-8.788719240330211,1.0765217571886512,5.040004949242738,-0.002452455931116266,0.0002479256878176892,0.040007554430923145,0.4960821066458675,1.7589412274625116
-8.791171696261328,1.0767696828764688,5.080012503673662,-0.002452455931116266,0.0002479256878176892,0.040007554430923145,0.4883598333768217,1.7620569976459592
-8.793624152192445,1.0770176085642864,5.120020058104585,-0.002452455931116266,0.0002479256878176892,0.040007554430923145,0.48661043780900787,1.7534536841602102
-8.796076608123562,1.077265534252104,5.160027612535509,-0.002452455931116266,0.0002479256878176892,0.040007554430923145,0.48447583550305656,1.7499425843871315
-8.798529064054678,1.0775134599399216,5.200035166966432,-0.002452455931116266,0.0002479256878176892,0.040007554430923145,0.48626962549622466,1.7616181567605795
-8.800981519985795,1.0777613856277393,5.240042721397356,-0.002452455931116266,0.0002479256878176892,0.040007554430923145,0.48793330573639704,1.765297891159209
-8.803433975916912,1.0780093113155569,5.2800502758282795,-0.002452455931116266,0.0002479256878176892,0.040007554430923145,0.49785595398128474,1.777166271024876
-8.805886431848029,1.0782572370033745,5.320057830259203,-0.002452455931116266,0.0002479256878176892,0.040007554430923145,0.5028705674445513,1.7811148488219462
-8.808338887779145,1.0785051626911921,5.3600653846901265,-0.002452455931116266,0.0002479256878176892,0.040007554430923145,0.5010608295118076,1.7913796256727927
-8.810791343710262,1.0787530883790097,5.40007293912105,-0.002452455931116266,0.0002479256878176892,0.040007554430923145,0.499538030408398,1.8007893598849682
-8.813243799641379,1.0790010140668274,5.4400804935519735,-0.002452455931116266,0.0002479256878176892,0.040007554430923145,0.4967812425306937,1.8125646580085768
-8.815696255572496,1.079248939754645,5.480088047982897,-0.002452455931116266,0.0002479256878176892,0.040007554430923145,0.49282542184342737,1.8014175044359975
-8.818148711503612,1.0794968654424626,5.520095602413821,-0.002452455931116266,0.0002479256878176892,0.040007554430923145,0.49545105124311756,1.8026937205891214
-8.820601167434729,1.0797447911302802,5.560103156844744,-0.002452455931116266,0.0002479256878176892,0.040007554430923145,0.4961994935825107,1.7939534979680436
-8.823053623365846,1.0799927168180978,5.600110711275668,-0.002452455931116266,0.0002479256878176892,0.040007554430923145,0.4905029585710634,1.7787616378564437
-8.825506079296963,1.0802406425059154,5.640118265706591,-0.002452455931116266,0.0002479256878176892,0.040007554430923145,0.49002186391855274,1.7855032319807635
-8.82795853522808,1.080488568193733,5.680125820137515,-0.002452455931116266,0.0002479256878176892,0.040007554430923145,0.4850831643064615,1.7880241213801744
-8.830410991159196,1.0807364938815507,5.720133374568438,-0.002452455931116266,0.0002479256878176892,0.040007554430923145,0.48179715963663594,1.8138701972704916
-8.832863447090313,1.0809844195693683,5.760140928999362,-0.002452455931116266,0.0002479256878176892,0.040007554430923145,0.48398320817665985,1.8012736851852011
-8.83531590302143,1.081232345257186,5.800148483430285,-0.002452455931116266,0.0002479256878176892,0.040007554430923145,0.48633698344835286,1.7786115222144883
-8.837768358952546,1.0814802709450035,5.840156037861209,-0.002452455931116266,0.0002479256878176892,0.040007554430923145,0.4950919096987934,1.7772788223306564
-8.840220814883663,1.0817281966328212,5.880163592292132,-0.002452455931116266,0.0002479256878176892,0.040007554430923145,0.4902990913674081,1.7805815531756766
-8.84267327081478,1.0819761223206388,5.920171146723056,-0.002452455931116266,0.0002479256878176892,0.040007554430923145,0.4951411304666997,1.7886532087158917
-8.845125726745897,1.0822240480084564,5.960178701153979,-0.002452455931116266,0.0002479256878176892,0.040007554430923145,0.4761729480069942,1.782230091813656
-8.847578182677013,1.082471973696274,6.000186255584903,-0.002452455931116266,0.0002479256878176892,0.040007554430923145,0.4702928080995953,1.7747681170440872
-8.85003063860813,1.0827198993840916,6.040193810015826,-0.002452455931116266,0.0002479256878176892,0.040007554430923145,0.469603666128551,1.768487756565268
-8.852483094539247,1.0829678250719093,6.08020136444675,-0.002452455931116266,0.0002479256878176892,0.040007554430923145,0.4685180152164566,1.7664591982958961
-8.854935550470364,1.0832157507597269,6.120208918877673,-0.002452455931116266,0.0002479256878176892,0.040007554430923145,0.47331893796150726,1.7688310105493266
-8.85738800640148,1.0834636764475445,6.160216473308597,-0.002452455931116266,0.0002479256878176892,0.040007554430923145,0.4771897311270902,1.7662499499620525
-8.859840462332597,1.083711602135362,6.20022402773952,-0.002452455931116266,0.0002479256878176892,0.040007554430923145,0.47969442638758436,1.7689215690296975
-8.862292918263714,1.0839595278231797,6.240231582170444,-0.002452455931116266,0.0002479256878176892,0.040007554430923145,0.4869319413864491,1.7718510465397175
-8.86474537419483,1.0842074535109973,6.2802391366013675,-0.002452455931116266,0.0002479256878176892,0.040007554430923145,0.4855966678193093,1.7606969961707581
-8.867197830125948,1.084455379198815,6.320246691032291,-0.002452455931116266,0.0002479256878176892,0.040007554430923145,0.4847220205903599,1.7558414722038937
-8.869650286057064,1.0847033048866326,6.3602542454632145,-0.002452455931116266,0.0002479256878176892,0.040007554430923145,0.48053241930292473,1.7520467734391485
-8.872102741988181,1.0849512305744502,6.400261799894138,-0.002452455931116266,0.0002479256878176892,0.040007554430923145,0.48153380810427593,1.7659392626437236
-8.874555197919298,1.0851991562622678,6.4402693543250615,-0.002452455931116266,0.0002479256878176892,0.040007554430923145,0.485892598331291,1.7583321967959475
-8.877007653850415,1.0854470819500854,6.480276908755985,-0.002452455931116266,0.0002479256878176892,0.040007554430923145,0.4850120080706793,1.7665602200359531
-8.879460109781531,1.085695007637903,6.520284463186909,-0.002452455931116266,0.0002479256878176892,0.040007554430923145,0.4824778713609298,1.778334584158307
-8.881912565712648,1.0859429333257207,6.560292017617832,-0.002452455931116266,0.0002479256878176892,0.040007554430923145,0.47464737146002317,1.793762616289378
-8.884365021643765,1.0861908590135383,6.600299572048756,-0.002452455931116266,0.0002479256878176892,0.040007554430923145,0.4757642160022136,1.7789728380765018
-8.886817477574882,1.086438784701356,6.640307126479679,-0.002452455931116266,0.0002479256878176892,0.040007554430923145,0.47238415186878663,1.7805071799207903
-8.889269933505998,1.0866867103891735,6.680314680910603,-0.002452455931116266,0.0002479256878176892,0.040007554430923145,0.4756941460679198,1.777211110600444
-8.891722389437115,1.0869346360769911,6.720322235341526,-0.002452455931116266,0.0002479256878176892,0.040007554430923145,0.4621886781814939,1.7619362343976683
-8.894174845368232,1.0871825617648088,6.76032978977245,-0.002452455931116266,0.0002479256878176892,0.040007554430923145,0.4648389300869524,1.7641688577853205
-8.896627301299349,1.0874304874526264,6.800337344203373,-0.002452455931116266,0.0002479256878176892,0.040007554430923145,0.45511715477867287,1.7583224824718828
-8.899079757230465,1.087678413140444,6.840344898634297,-0.002452455931116266,0.0002479256878176892,0.040007554430923145,0.4497375521341336,1.7462863559315451
-8.901532213161582,1.0879263388282616,6.88035245306522,-0.002452455931116266,0.0002479256878176892,0.040007554430923145,0.4528995461703811,1.7608108069792803
-8.903984669092699,1.0881742645160792,6.920360007496144,-0.002452455931116266,0.0002479256878176892,0.040007554430923145,0.442147130433367,1.746587962172988
-8.906437125023816,1.0884221902038969,6.960367561927067,-0.002452455931116266,0.0002479256878176892,0.040007554430923145,0.4456546206521129,1.75219469252279
-8.908889580954932,1.0886701158917145,7.000375116357991,-0.002452455931116266,0.0002479256878176892,0.040007554430923145,0.44569153243482196,1.739817707944369
-8.91134203688605,1.088918041579532,7.040382670788914,-0.002452455931116266,0.0002479256878176892,0.040007554430923145,0.43082925987619647,1.7359992156707613
-8.913794492817166,1.0891659672673497,7.080390225219838,-0.002452455931116266,0.0002479256878176892,0.040007554430923145,0.4279545940503185,1.7537213057332581
-8.919166354519119,1.1056463658714148,7.03916800829602,-0.005371861701952089,0.016480398604065166,-0.041222216923818125,0.4256248374432946,1.7541168178529
-8.924538216221071,1.12212676447548,6.997945791372202,-0.005371861701952089,0.016480398604065166,-0.041222216923818125,0.41999225744610896,1.7526740597782302
-8.929910077923024,1.1386071630795451,6.956723574448384,-0.005371861701952089,0.016480398604065166,-0.041222216923818125,0.4237698669370691,1.7551031697649444
-8.935281939624977,1.1550875616836103,6.915501357524566,-0.005371861701952089,0.016480398604065166,-0.041222216923818125,0.4232228662558534,1.7796429228535617
-8.94065380132693,1.1715679602876754,6.874279140600748,-0.005371861701952089,0.016480398604065166,-0.041222216923818125,0.43305228608189683,1.7678427606895506
-8.946025663028882,1.1880483588917405,6.8330569236769305,-0.005371861701952089,0.016480398604065166,-0.041222216923818125,0.4311274718402923,1.7621157525146838
-8.951397524730835,1.2045287574958057,6.791834706753113,-0.005371861701952089,0.016480398604065166,-0.041222216923818125,0.4317629985266105,1.7666248310030452
-8.956769386432788,1.2210091560998708,6.750612489829295,-0.005371861701952089,0.016480398604065166,-0.041222216923818125,0.4275913861715543,1.7658535617648312
-8.96214124813474,1.237489554703936,6.709390272905477,-0.005371861701952089,0.016480398604065166,-0.041222216923818125,0.43141239411074667,1.771018751285317
-8.967513109836693,1.253969953308001,6.668168055981659,-0.005371861701952089,0.016480398604065166,-0.041222216923818125,0.4296375545565682,1.7563465252833392
-8.972884971538646,1.2704503519120662,6.626945839057841,-0.005371861701952089,0.016480398604065166,-0.041222216923818125,0.4281135373813978,1.7445014946518373
-8.978256833240598,1.2869307505161314,6.585723622134023,-0.005371861701952089,0.016480398604065166,-0.041222216923818125,0.43380426312930465,1.7431868341193932
-8.983628694942551,1.3034111491201965,6.544501405210205,-0.005371861701952089,0.016480398604065166,-0.041222216923818125,0.4303672417621622,1.749434534511451
-8.989000556644504,1.3198915477242616,6.503279188286387,-0.005371861701952089,0.016480398604065166,-0.041222216923818125,0.4337727108228198,1.7397578552031585
-8.994372418346456,1.3363719463283268,6.4620569713625695,-0.005371861701952089,0.016480398604065166,-0.041222216923818125,0.4313412775704118,1.7402333781688424
-8.999744280048409,1.352852344932392,6.420834754438752,-0.005371861701952089,0.016480398604065166,-0.041222216923818125,0.42878462361611863,1.731683393931549
-9.005116141750362,1.369332743536457,6.379612537514934,-0.005371861701952089,0.016480398604065166,-0.041222216923818125,0.4228597798140807,1.7239014149912084
-9.010488003452314,1.3858131421405222,6.338390320591116,-0.005371861701952089,0.016480398604065166,-0.041222216923818125,0.419000328541147,1.7216176546060016
-9.015859865154267,1.4022935407445873,6.297168103667298,-0.005371861701952089,0.016480398604065166,-0.041222216923818125,0.4121731568092507,1.71347630476414
-9.02123172685622,1.4187739393486525,6.25594588674348,-0.005371861701952089,0.016480398604065166,-0.041222216923818125,0.40644463388375457,1.7250430689636125
-9.026603588558173,1.4352543379527176,6.214723669819662,-0.005371861701952089,0.016480398604065166,-0.041222216923818125,0.4043500976063411,1.7354750271579449
-9.031975450260125,1.4517347365567828,6.173501452895844,-0.005371861701952089,0.016480398604065166,-0.041222216923818125,0.3931695528878945,1.7384997617798148
-9.037347311962078,1.468215135160848,6.132279235972026,-0.005371861701952089,0.016480398604065166,-0.041222216923818125,0.3891309949505654,1.7253914771677312
-9.04271917366403,1.484695533764913,6.0910570190482085,-0.005371861701952089,0.016480398604065166,-0.041222216923818125,0.3850365650371892,1.7181513383404712
-9.048091035365983,1.5011759323689782,6.049834802124391,-0.005371861701952089,0.016480398604065166,-0.041222216923818125,0.3780483102840555,1.719756786005418
-9.053462897067936,1.5176563309730433,6.008612585200573,-0.005371861701952089,0.016480398604065166,-0.041222216923818125,0.3719099548187971,1.7070961871511483
-9.058834758769889,1.5341367295771084,5.967390368276755,-0.005371861701952089,0.016480398604065166,-0.041222216923818125,0.3719620199609528,1.7053507377522106
-9.064206620471841,1.5506171281811736,5.926168151352937,-0.005371861701952089,0.016480398604065166,-0.041222216923818125,0.3763042235241233,1.7027329229141437
-9.069578482173794,1.5670975267852387,5.884945934429119,-0.005371861701952089,0.016480398604065166,-0.041222216923818125,0.3792458100933336,1.7013516318081576
-9.074950343875747,1.5835779253893039,5.843723717505301,-0.005371861701952089,0.016480398604065166,-0.041222216923818125,0.3751688499875834,1.7102829827204529
-9.0803222055777,1.600058323993369,5.802501500581483,-0.005371861701952089,0.016480398604065166,-0.041222216923818125,0.3747094546772733,1.7136377516476204
-9.085694067279652,1.6165387225974341,5.761279283657665,-0.005371861701952089,0.016480398604065166,-0.041222216923818125,0.38493106564040475,1.7252790527932471
-9.091065928981605,1.6330191212014993,5.7200570667338475,-0.005371861701952089,0.016480398604065166,-0.041222216923818125,0.37949119312836493,1.7392316346172865
-9.096437790683558,1.6494995198055644,5.67883484981003,-0.005371861701952089,0.016480398604065166,-0.041222216923818125,0.38019482581238095,1.7373367373347235
-9.10180965238551,1.6659799184096296,5.637612632886212,-0.005371861701952089,0.016480398604065166,-0.041222216923818125,0.3804744655661657,1.7319325584343641
-9.107181514087463,1.6824603170136947,5.596390415962394,-0.005371861701952089,0.016480398604065166,-0.041222216923818125,0.37608546977067475,1.7346145703992555
-9.112553375789416,1.6989407156177598,5.555168199038576,-0.005371861701952089,0.016480398604065166,-0.041222216923818125,0.37525545470869803,1.7388919564018102
-9.117925237491368,1.715421114221825,5.513945982114758,-0.005371861701952089,0.016480398604065166,-0.041222216923818125,0.37424614830115566,1.7294610913788484
-9.123297099193321,1.73190151282589,5.47272376519094,-0.005371861701952089,0.016480398604065166,-0.041222216923818125,0.3745654666607411,1.726235070773529
-9.128668960895274,1.7483819114299552,5.431501548267122,-0.005371861701952089,0.016480398604065166,-0.041222216923818125,0.36908348992817464,1.732278048736744
-9.134040822597226,1.7648623100340204,5.390279331343304,-0.005371861701952089,0.016480398604065166,-0.041222216923818125,0.3645797851872128,1.7350489345105498
-9.13941268429918,1.7813427086380855,5.3490571144194865,-0.005371861701952089,0.016480398604065166,-0.041222216923818125,0.36032687235177646,1.7472595265686246
-9.144784546001132,1.7978231072421507,5.307834897495669,-0.005371861701952089,0.016480398604065166,-0.041222216923818125,0.3599461887430658,1.73836452301188
-9.150156407703085,1.8143035058462158,5.266612680571851,-0.005371861701952089,0.016480398604065166,-0.041222216923818125,0.3489918907474948,1.7330039990090873
-9.146231037853132,1.8096767371246678,5.327026303543323,0.003925369849952138,-0.004626768721548074,0.0604136229714719,0.35277326685470406,1.7194595113208508
-9.14230566800318,1.8050499684031198,5.387439926514795,0.003925369849952138,-0.004626768721548074,0.0604136229714719,0.35654604017695235,1.7305519375587526
-9.138380298153228,1.8004231996815718,5.447853549486267,0.003925369849952138,-0.004626768721548074,0.0604136229714719,0.3512011629577668,1.735897782778782
-9.134454928303276,1.7957964309600238,5.50826717245774,0.003925369849952138,-0.004626768721548074,0.0604136229714719,0.35429841813068186,1.743213831491346
-9.130529558453324,1.7911696622384758,5.568680795429212,0.003925369849952138,-0.004626768721548074,0.0604136229714719,0.3587769524248562,1.7335920452527287
-9.126604188603372,1.7865428935169279,5.629094418400684,0.003925369849952138,-0.004626768721548074,0.0604136229714719,0.36397176042736756,1.7316360333782017
-9.12267881875342,1.7819161247953799,5.689508041372156,0.003925369849952138,-0.004626768721548074,0.0604136229714719,0.36730325761632054,1.729417042082453
-9.118753448903467,1.7772893560738319,5.749921664343629,0.003925369849952138,-0.004626768721548074,0.0604136229714719,0.3666167425374223,1.7306286483602
-9.114828079053515,1.7726625873522839,5.810335287315101,0.003925369849952138,-0.004626768721548074,0.0604136229714719,0.3728823294330487,1.7260677245296345
-9.110902709203563,1.768035818630736,5.870748910286573,0.003925369849952138,-0.004626768721548074,0.0604136229714719,0.3757887714132012,1.7029875575966809
-9.10697733935361,1.763409049909188,5.931162533258045,0.003925369849952138,-0.004626768721548074,0.0604136229714719,0.3821101358764964,1.7027673028693502
-9.103051969503658,1.75878228118764,5.991576156229518,0.003925369849952138,-0.004626768721548074,0.0604136229714719,0.3847558249429511,1.7172978268726855
-9.099126599653706,1.754155512466092,6.05198977920099,0.003925369849952138,-0.004626768721548074,0.0604136229714719,0.38348980575294006,1.7280843695920667
-9.095201229803754,1.749528743744544,6.112403402172462,0.003925369849952138,-0.004626768721548074,0.0604136229714719,0.3843160565263433,1.740650801704735
-9.091275859953802,1.744901975022996,6.172817025143934,0.003925369849952138,-0.004626768721548074,0.0604136229714719,0.3917438252626421,1.7361815991296228
-9.08735049010385,1.740275206301448,6.2332306481154065,0.003925369849952138,-0.004626768721548074,0.0604136229714719,0.38658710538201474,1.7194474652584475
-9.083425120253898,1.7356484375799,6.293644271086879,0.003925369849952138,-0.004626768721548074,0.0604136229714719,0.38368730367086684,1.7274716411020725
-9.079499750403945,1.731021668858352,6.354057894058351,0.003925369849952138,-0.004626768721548074,0.0604136229714719,0.37783805698960493,1.721368554474957
-9.075574380553993,1.726394900136804,6.414471517029823,0.003925369849952138,-0.004626768721548074,0.0604136229714719,0.3763496209731561,1.726347742731214
-9.071649010704041,1.721768131415256,6.4748851400012954,0.003925369849952138,-0.004626768721548074,0.0604136229714719,0.3740594325267716,1.706868477253975
-9.067723640854089,1.717141362693708,6.535298762972768,0.003925369849952138,-0.004626768721548074,0.0604136229714719,0.37365580461556375,1.7092420973294473
-9.063798271004137,1.71251459397216,6.59571238594424,0.003925369849952138,-0.004626768721548074,0.0604136229714719,0.36295051022799035,1.7356337133590571
-9.059872901154185,1.707887825250612,6.656126008915712,0.003925369849952138,-0.004626768721548074,0.0604136229714719,0.3563376599828547,1.7265677164472744
-9.055947531304232,1.703261056529064,6.716539631887184,0.003925369849952138,-0.004626768721548074,0.0604136229714719,0.35403914744858545,1.7126825333707232
-9.05202216145428,1.698634287807516,6.776953254858657,0.003925369849952138,-0.004626768721548074,0.0604136229714719,0.35140843205024624,1.6982421938058574
-9.048096791604328,1.694007519085968,6.837366877830129,0.003925369849952138,-0.004626768721548074,0.0604136229714719,0.3577246069809524,1.7004085605160475
-9.044171421754376,1.68938075036442,6.897780500801601,0.003925369849952138,-0.004626768721548074,0.0604136229714719,0.3661085645981583,1.7011695959251159
-9.040246051904424,1.684753981642872,6.958194123773073,0.003925369849952138,-0.004626768721548074,0.0604136229714719,0.3657102995633174,1.6874708525283015
-9.036320682054471,1.680127212921324,7.018607746744546,0.003925369849952138,-0.004626768721548074,0.0604136229714719,0.3589640615422126,1.6806863227648983
-9.03239531220452,1.675500444199776,7.079021369716018,0.003925369849952138,-0.004626768721548074,0.0604136229714719,0.3611506951168798,1.680710534243044
-9.028469942354567,1.670873675478228,7.13943499268749,0.003925369849952138,-0.004626768721548074,0.0604136229714719,0.36123179347863416,1.68308573565978
-9.024544572504615,1.66624690675668,7.199848615658962,0.003925369849952138,-0.004626768721548074,0.0604136229714719,0.36145274645850556,1.6782810500055443
-9.020619202654663,1.661620138035132,7.2602622386304345,0.003925369849952138,-0.004626768721548074,0.0604136229714719,0.35653495328323176,1.6560501986538778
-9.01669383280471,1.656993369313584,7.320675861601907,0.003925369849952138,-0.004626768721548074,0.0604136229714719,0.3590568232581209,1.6460636219197806
-9.012768462954758,1.652366600592036,7.381089484573379,0.003925369849952138,-0.004626768721548074,0.0604136229714719,0.35929304075695045,1.6554327924060233
-9.008843093104806,1.6477398318704881,7.441503107544851,0.003925369849952138,-0.004626768721548074,0.0604136229714719,0.36271366514891273,1.6533404803487732
-9.004917723254854,1.6431130631489401,7.5019167305163235,0.003925369849952138,-0.004626768721548074,0.0604136229714719,0.36168931014698014,1.6291441538806846
-9.000992353404902,1.6384862944273921,7.562330353487796,0.003925369849952138,-0.004626768721548074,0.0604136229714719,0.35783303778586123,1.6254844142536984
-8.99706698355495,1.6338595257058441,7.622743976459268,0.003925369849952138,-0.004626768721548074,0.0604136229714719,0.3488179059485765,1.6208547629466634
-8.993141613704998,1.6292327569842961,7.68315759943074,0.003925369849952138,-0.004626768721548074,0.0604136229714719,0.34681310614294286,1.6326388186957197
-8.989216243855045,1.6246059882627482,7.743571222402212,0.003925369849952138,-0.004626768721548074,0.0604136229714719,0.34613479322130686,1.6262486785257095
-8.985290874005093,1.6199792195412002,7.803984845373685,0.003925369849952138,-0.004626768721548074,0.0604136229714719,0.35665659569944347,1.6344606928169556
-8.981365504155141,1.6153524508196522,7.864398468345157,0.003925369849952138,-0.004626768721548074,0.0604136229714719,0.37161064137731376,1.6424465845808573
-8.977440134305189,1.6107256820981042,7.924812091316629,0.003925369849952138,-0.004626768721548074,0.0604136229714719,0.37717268377165414,1.6403209350193635
-8.973514764455237,1.6060989133765562,7.985225714288101,0.003925369849952138,-0.004626768721548074,0.0604136229714719,0.36960960771030055,1.6502191522956808
-8.969589394605284,1.6014721446550082,8.045639337259573,0.003925369849952138,-0.004626768721548074,0.0604136229714719,0.36581112403914645,1.64100676184236
-8.965664024755332,1.5968453759334602,8.106052960231045,0.003925369849952138,-0.004626768721548074,0.0604136229714719,0.35930135824065174,1.6399817264756351
-8.96173865490538,1.5922186072119122,8.166466583202517,0.003925369849952138,-0.004626768721548074,0.0604136229714719,0.3589642124050468,1.6138829266676071
-8.957813285055428,1.5875918384903642,8.22688020617399,0.003925369849952138,-0.004626768721548074,0.0604136229714719,0.36064345717848784,1.6057615767775446
-8.953887915205476,1.5829650697688162,8.287293829145462,0.003925369849952138,-0.004626768721548074,0.0604136229714719,0.366171547153119,1.6058983523912065
-8.949962545355524,1.5783383010472682,8.347707452116934,0.003925369849952138,-0.004626768721548074,0.0604136229714719,0.36204594603648216,1.6190237807497598
-8.946037175505571,1.5737115323257203,8.408121075088406,0.003925369849952138,-0.004626768721548074,0.0604136229714719,0.37251126074424135,1.639056651149067
-8.94211180565562,1.5690847636041723,8.468534698059878,0.003925369849952138,-0.004626768721548074,0.0604136229714719,0.36760905717403347,1.618079564335994
-8.938186435805667,1.5644579948826243,8.52894832103135,0.003925369849952138,-0.004626768721548074,0.0604136229714719,0.35679346353315067,1.6039266398342489
-8.934261065955715,1.5598312261610763,8.589361944002823,0.003925369849952138,-0.004626768721548074,0.0604136229714719,0.34433295231840244,1.6044865851925971
-8.930335696105763,1.5552044574395283,8.649775566974295,0.003925369849952138,-0.004626768721548074,0.0604136229714719,0.33746384640406524,1.615930482651834
-8.92641032625581,1.5505776887179803,8.710189189945767,0.003925369849952138,-0.004626768721548074,0.0604136229714719,0.3405262355382516,1.594119445494273
-8.922484956405858,1.5459509199964323,8.77060281291724,0.003925369849952138,-0.004626768721548074,0.0604136229714719,0.3426119219509679,1.5992381584390911
-8.918559586555906,1.5413241512748843,8.831016435888712,0.003925369849952138,-0.004626768721548074,0.0604136229714719,0.3415145177045812,1.6056315254746838
-8.914634216705954,1.5366973825533363,8.891430058860184,0.003925369849952138,-0.004626768721548074,0.0604136229714719,0.3299653865630139,1.5954444008246145
-8.910708846856002,1.5320706138317883,8.951843681831656,0.003925369849952138,-0.004626768721548074,0.0604136229714719,0.32904119879878496,1.5998567009457554
-8.90678347700605,1.5274438451102403,9.012257304803128,0.003925369849952138,-0.004626768721548074,0.0604136229714719,0.3268015048018674,1.5841296932005027
-8.902858107156097,1.5228170763886923,9.0726709277746,0.003925369849952138,-0.004626768721548074,0.0604136229714719,0.31773656529832184,1.5851840822766534
-8.898932737306145,1.5181903076671444,9.133084550746073,0.003925369849952138,-0.004626768721548074,0.0604136229714719,0.3187122412380489,1.5982907442541483
-8.895007367456193,1.5135635389455964,9.193498173717545,0.003925369849952138,-0.004626768721548074,0.0604136229714719,0.3131515678126064,1.6011770256242677
-8.891081997606241,1.5089367702240484,9.253911796689017,0.003925369849952138,-0.004626768721548074,0.0604136229714719,0.30778359416179274,1.590636872236336
-8.887156627756289,1.5043100015025004,9.31432541966049,0.003925369849952138,-0.004626768721548074,0.0604136229714719,0.3064225000829997,1.5941286837679924
-8.883231257906337,1.4996832327809524,9.374739042631962,0.003925369849952138,-0.004626768721548074,0.0604136229714719,0.30456049076038305,1.6017645744873792
-8.82893703087697,1.499761696410968,9.419668002664089,0.05429422702936569,7.846363001555765e-05,0.04492896003212782,0.30340965612786686,1.6024244740757296
-8.774642803847604,1.4998401600409834,9.464596962696216,0.05429422702936569,7.846363001555765e-05,0.04492896003212782,0.2989497079473647,1.6074518563726299
-8.720348576818237,1.499918623670999,9.509525922728344,0.05429422702936569,7.846363001555765e-05,0.04492896003212782,0.2982116826712941,1.5986480806417385
-8.66605434978887,1.4999970873010144,9.55445488276047,0.05429422702936569,7.846363001555765e-05,0.04492896003212782,0.29800997519810574,1.5832794846292306
-8.611760122759504,1.50007555093103,9.599383842792598,0.05429422702936569,7.846363001555765e-05,0.04492896003212782,0.2967437579012133,1.5990824719105836
-8.557465895730138,1.5001540145610455,9.644312802824725,0.05429422702936569,7.846363001555765e-05,0.04492896003212782,0.3063708660202497,1.6027608492262317
-8.503171668700771,1.500232478191061,9.689241762856852,0.05429422702936569,7.846363001555765e-05,0.04492896003212782,0.3022477417917859,1.598535398197644
-8.448877441671405,1.5003109418210765,9.73417072288898,0.05429422702936569,7.846363001555765e-05,0.04492896003212782,0.2997290264733726,1.5943371017467762
-8.394583214642038,1.500389405451092,9.779099682921107,0.05429422702936569,7.846363001555765e-05,0.04492896003212782,0.2987743670867152,1.603476528036804
-8.340288987612672,1.5004678690811075,9.824028642953234,0.05429422702936569,7.846363001555765e-05,0.04492896003212782,0.2920705112773855,1.6274479075078445
-8.285994760583305,1.500546332711123,9.868957602985361,0.05429422702936569,7.846363001555765e-05,0.04492896003212782,0.28915045910114073,1.6114712494180667
-8.231700533553939,1.5006247963411385,9.913886563017488,0.05429422702936569,7.846363001555765e-05,0.04492896003212782,0.2884882450546158,1.60050480666807
-8.177406306524572,1.500703259971154,9.958815523049616,0.05429422702936569,7.846363001555765e-05,0.04492896003212782,0.2909730450260657,1.6056504561696034
-8.171718537579594,1.4869537577716205,9.951446460838065,0.005687768944979184,-0.013749502199533565,-0.007369062211550243,0.2950559723057027,1.5824390207116554
-8.166030768634615,1.473204255572087,9.944077398626515,0.005687768944979184,-0.013749502199533565,-0.007369062211550243,0.29564733784642006,1.5788581252875655
-8.160342999689636,1.4594547533725535,9.936708336414965,0.005687768944979184,-0.013749502199533565,-0.007369062211550243,0.29797213970691083,1.5691611818071063
-8.154655230744657,1.44570525117302,9.929339274203414,0.005687768944979184,-0.013749502199533565,-0.007369062211550243,0.29718679144932963,1.576794572225424
-8.148967461799678,1.4319557489734864,9.921970211991864,0.005687768944979184,-0.013749502199533565,-0.007369062211550243,0.28726157144079173,1.571381062442996
-8.1432796928547,1.418206246773953,9.914601149780314,0.005687768944979184,-0.013749502199533565,-0.007369062211550243,0.2857767052150602,1.5690681014372012
-8.13759192390972,1.4044567445744194,9.907232087568763,0.005687768944979184,-0.013749502199533565,-0.007369062211550243,0.2765682694569602,1.559473410885096
-8.131904154964742,1.3907072423748859,9.899863025357213,0.005687768944979184,-0.013749502199533565,-0.007369062211550243,0.2729900035759665,1.561398557907681
-8.126216386019763,1.3769577401753523,9.892493963145663,0.005687768944979184,-0.013749502199533565,-0.007369062211550243,0.27509688401656895,1.571140193772693
-8.120528617074784,1.3632082379758188,9.885124900934112,0.005687768944979184,-0.013749502199533565,-0.007369062211550243,0.2831007386528125,1.5619627477985345
-8.114840848129806,1.3494587357762853,9.877755838722562,0.005687768944979184,-0.013749502199533565,-0.007369062211550243,0.28308328010371225,1.5537573087333516
-8.109153079184827,1.3357092335767518,9.870386776511012,0.005687768944979184,-0.013749502199533565,-0.007369062211550243,0.2871114659689694,1.5620030439032333
-8.103465310239848,1.3219597313772182,9.863017714299462,0.005687768944979184,-0.013749502199533565,-0.007369062211550243,0.2854880186903633,1.5604751574968727
-8.09777754129487,1.3082102291776847,9.855648652087911,0.005687768944979184,-0.013749502199533565,-0.007369062211550243,0.29062086854737573,1.5563569613427892
-8.09208977234989,1.2944607269781512,9.84827958987636,0.005687768944979184,-0.013749502199533565,-0.007369062211550243,0.2834044176205995,1.5533467588928977
-8.086402003404912,1.2807112247786177,9.84091052766481,0.005687768944979184,-0.013749502199533565,-0.007369062211550243,0.2851284048726487,1.5586696262902746
-8.080714234459933,1.2669617225790841,9.83354146545326,0.005687768944979184,-0.013749502199533565,-0.007369062211550243,0.28696429232929604,1.5650084359772491
-8.075026465514954,1.2532122203795506,9.82617240324171,0.005687768944979184,-0.013749502199533565,-0.007369062211550243,0.2927995202648504,1.5549724184943747
-8.069338696569975,1.239462718180017,9.81880334103016,0.005687768944979184,-0.013749502199533565,-0.007369062211550243,0.2988943678340178,1.5428962593009805
-8.063650927624996,1.2257132159804836,9.81143427881861,0.005687768944979184,-0.013749502199533565,-0.007369062211550243,0.29925384819258427,1.5300926101380736
-8.057963158680018,1.21196371378095,9.804065216607059,0.005687768944979184,-0.013749502199533565,-0.007369062211550243,0.2976965985093856,1.5384760141416747
-8.052275389735039,1.1982142115814165,9.796696154395509,0.005687768944979184,-0.013749502199533565,-0.007369062211550243,0.296117882870123,1.5429449647302311
-8.04658762079006,1.184464709381883,9.789327092183958,0.005687768944979184,-0.013749502199533565,-0.007369062211550243,0.28316694247808316,1.5274150761701315
-8.040899851845081,1.1707152071823494,9.781958029972408,0.005687768944979184,-0.013749502199533565,-0.007369062211550243,0.2905835271104652,1.5241164339113513
-8.035212082900102,1.156965704982816,9.774588967760858,0.005687768944979184,-0.013749502199533565,-0.007369062211550243,0.29143421202860503,1.537215580502121
-8.029524313955124,1.1432162027832824,9.767219905549307,0.005687768944979184,-0.013749502199533565,-0.007369062211550243,0.2915170928455335,1.5262314977480216
-8.023836545010145,1.1294667005837489,9.759850843337757,0.005687768944979184,-0.013749502199533565,-0.007369062211550243,0.3000670126926538,1.5205340166944636
-8.018148776065166,1.1157171983842153,9.752481781126207,0.005687768944979184,-0.013749502199533565,-0.007369062211550243,0.2968689295614851,1.5323601149172206
-8.012461007120187,1.1019676961846818,9.745112718914656,0.005687768944979184,-0.013749502199533565,-0.007369062211550243,0.2853064880779602,1.5270582018501464
-8.006773238175208,1.0882181939851483,9.737743656703106,0.005687768944979184,-0.013749502199533565,-0.007369062211550243,0.28372066944365226,1.5338231009390013
-8.00108546923023,1.0744686917856148,9.730374594491556,0.005687768944979184,-0.013749502199533565,-0.007369062211550243,0.2788872746275704,1.5283496765847873
-7.995397700285251,1.0607191895860812,9.723005532280006,0.005687768944979184,-0.013749502199533565,-0.007369062211550243,0.2802991145781679,1.5421895184462366
-7.989709931340272,1.0469696873865477,9.715636470068455,0.005687768944979184,-0.013749502199533565,-0.007369062211550243,0.2813740290643177,1.5291561639465818
-7.984022162395293,1.0332201851870142,9.708267407856905,0.005687768944979184,-0.013749502199533565,-0.007369062211550243,0.28131950483708,1.539928211652212
-7.978334393450314,1.0194706829874807,9.700898345645355,0.005687768944979184,-0.013749502199533565,-0.007369062211550243,0.28049670359815565,1.5221520360333631
-7.972646624505336,1.0057211807879471,9.693529283433804,0.005687768944979184,-0.013749502199533565,-0.007369062211550243,0.2841192924090293,1.515469701061851
-7.966958855560357,0.9919716785884136,9.686160221222254,0.005687768944979184,-0.013749502199533565,-0.007369062211550243,0.2833358018603334,1.5128044245732488
-7.961271086615378,0.9782221763888801,9.678791159010704,0.005687768944979184,-0.013749502199533565,-0.007369062211550243,0.28021663319515777,1.508532395600904
-7.955583317670399,0.9644726741893466,9.671422096799153,0.005687768944979184,-0.013749502199533565,-0.007369062211550243,0.27267546225810224,1.5128475190841875
-7.94989554872542,0.950723171989813,9.664053034587603,0.005687768944979184,-0.013749502199533565,-0.007369062211550243,0.2715250449090501,1.513603196572917
-7.944207779780442,0.9369736697902795,9.656683972376053,0.005687768944979184,-0.013749502199533565,-0.007369062211550243,0.2831288829281642,1.5187924786011548
-7.938520010835463,0.923224167590746,9.649314910164502,0.005687768944979184,-0.013749502199533565,-0.007369062211550243,0.2778997860926117,1.526298715294557
-7.932832241890484,0.9094746653912125,9.641945847952952,0.005687768944979184,-0.013749502199533565,-0.007369062211550243,0.27021550879874096,1.5299897156097568
-7.927144472945505,0.8957251631916789,9.634576785741402,0.005687768944979184,-0.013749502199533565,-0.007369062211550243,0.2776962834021266,1.5337861754523
-7.921456704000526,0.8819756609921454,9.627207723529851,0.005687768944979184,-0.013749502199533565,-0.007369062211550243,0.27790480207200796,1.5260167002305167
-7.915768935055548,0.8682261587926119,9.619838661318301,0.005687768944979184,-0.013749502199533565,-0.007369062211550243,0.2762007298505457,1.5300800604222546
-7.910081166110569,0.8544766565930784,9.61246959910675,0.005687768944979184,-0.013749502199533565,-0.007369062211550243,0.2707841387894669,1.523446019467559
-7.90439339716559,0.8407271543935448,9.6051005368952,0.005687768944979184,-0.013749502199533565,-0.007369062211550243,0.2721038920452199,1.5052680853704223
-7.922400417493124,0.8413451405508218,9.628445931184503,-0.018007020327534304,0.0006179861572769743,0.023345394289303007,0.26537495015608975,1.5182674804279734
-7.940407437820658,0.8419631267080987,9.651791325473805,-0.018007020327534304,0.0006179861572769743,0.023345394289303007,0.25723709434605524,1.5048034294894956
-7.958414458148193,0.8425811128653756,9.675136719763108,-0.018007020327534304,0.0006179861572769743,0.023345394289303007,0.25787762807736286,1.4896624379849368
-7.976421478475727,0.8431990990226526,9.69848211405241,-0.018007020327534304,0.0006179861572769743,0.023345394289303007,0.2569566774335422,1.514531014584413
-7.994428498803261,0.8438170851799295,9.721827508341713,-0.018007020327534304,0.0006179861572769743,0.023345394289303007,0.2519730368466753,1.5081386880207879
-8.012435519130795,0.8444350713372064,9.745172902631015,-0.018007020327534304,0.0006179861572769743,0.023345394289303007,0.2482004473841125,1.4978119317064105
-8.03044253945833,0.8450530574944833,9.768518296920318,-0.018007020327534304,0.0006179861572769743,0.023345394289303007,0.2501477368725638,1.5024613437588175
-8.048449559785864,0.8456710436517603,9.79186369120962,-0.018007020327534304,0.0006179861572769743,0.023345394289303007,0.24936359932690788,1.4804356741663551
-8.066456580113398,0.8462890298090372,9.815209085498923,-0.018007020327534304,0.0006179861572769743,0.023345394289303007,0.2439295998528663,1.4855255668742156
-8.084463600440932,0.8469070159663141,9.838554479788225,-0.018007020327534304,0.0006179861572769743,0.023345394289303007,0.24475256836815407,1.4992632232627745
-8.102470620768466,0.847525002123591,9.861899874077528,-0.018007020327534304,0.0006179861572769743,0.023345394289303007,0.23741082929372082,1.5028896110852419
-8.120477641096,0.848142988280868,9.88524526836683,-0.018007020327534304,0.0006179861572769743,0.023345394289303007,0.23202888492620424,1.5026280985179865
-8.138484661423535,0.8487609744381449,9.908590662656133,-0.018007020327534304,0.0006179861572769743,0.023345394289303007,0.2285889482785414,1.4963171301366551
-8.156491681751069,0.8493789605954218,9.931936056945435,-0.018007020327534304,0.0006179861572769743,0.023345394289303007,0.23371512290959948,1.5004136009945765
-8.174498702078603,0.8499969467526988,9.955281451234738,-0.018007020327534304,0.0006179861572769743,0.023345394289303007,0.22737271678017293,1.5042883964027132
-8.192505722406137,0.8506149329099757,9.97862684552404,-0.018007020327534304,0.0006179861572769743,0.023345394289303007,0.2229323706073804,1.5054588135173095
-8.109923084638693,0.8485029511148748,9.971333074927546,0.08258263776744491,-0.0021119817951008816,-0.007293770596494399,0.2193678885598964,1.501209531299041
-8.027340446871248,0.846390969319774,9.964039304331052,0.08258263776744491,-0.0021119817951008816,-0.007293770596494399,0.2199253739950461,1.5076418112993426
-7.944757809103804,0.8442789875246731,9.956745533734559,0.08258263776744491,-0.0021119817951008816,-0.007293770596494399,0.22286456307437713,1.5091605048970111
-7.862175171336359,0.8421670057295723,9.949451763138065,0.08258263776744491,-0.0021119817951008816,-0.007293770596494399,0.22668427366656724,1.497786556365776
-7.7795925335689144,0.8400550239344714,9.94215799254157,0.08258263776744491,-0.0021119817951008816,-0.007293770596494399,0.22317862619024095,1.5085529126720907
-7.69700989580147,0.8379430421393705,9.934864221945077,0.08258263776744491,-0.0021119817951008816,-0.007293770596494399,0.23443710403946635,1.5120883458955552
-7.614427258034025,0.8358310603442697,9.927570451348583,0.08258263776744491,-0.0021119817951008816,-0.007293770596494399,0.23283234304359274,1.5068112386072114
-7.531844620266581,0.8337190785491688,9.920276680752089,0.08258263776744491,-0.0021119817951008816,-0.007293770596494399,0.2307877740562382,1.5114200053785634
-7.449261982499136,0.831607096754068,9.912982910155595,0.08258263776744491,-0.0021119817951008816,-0.007293770596494399,0.23760021443179316,1.5132144305702142
-7.366679344731692,0.8294951149589671,9.905689139559101,0.08258263776744491,-0.0021119817951008816,-0.007293770596494399,0.23940644686212093,1.502899479846253
-7.284096706964247,0.8273831331638662,9.898395368962607,0.08258263776744491,-0.0021119817951008816,-0.007293770596494399,0.23632691066378825,1.5075175397106668
-7.2015140691968025,0.8252711513687654,9.891101598366113,0.08258263776744491,-0.0021119817951008816,-0.007293770596494399,0.24138147401647053,1.496580624637839
-7.118931431429358,0.8231591695736645,9.883807827769619,0.08258263776744491,-0.0021119817951008816,-0.007293770596494399,0.23748942575181164,1.490798272660134
-7.036348793661913,0.8210471877785637,9.876514057173125,0.08258263776744491,-0.0021119817951008816,-0.007293770596494399,0.23505596370618245,1.4978766528124134
-6.953766155894469,0.8189352059834628,9.869220286576631,0.08258263776744491,-0.0021119817951008816,-0.007293770596494399,0.2306893291195397,1.4706458099852056
-6.871183518127024,0.816823224188362,9.861926515980137,0.08258263776744491,-0.0021119817951008816,-0.007293770596494399,0.2278585825141207,1.450553350483631
-6.78860088035958,0.8147112423932611,9.854632745383643,0.08258263776744491,-0.0021119817951008816,-0.007293770596494399,0.22387912491934436,1.4505335289995596
-6.706018242592135,0.8125992605981602,9.84733897478715,0.08258263776744491,-0.0021119817951008816,-0.007293770596494399,0.22393308551991858,1.445881331880222
-6.6234356048246905,0.8104872788030594,9.840045204190655,0.08258263776744491,-0.0021119817951008816,-0.007293770596494399,0.21892691773999415,1.4402576122592503
-6.540852967057246,0.8083752970079585,9.832751433594161,0.08258263776744491,-0.0021119817951008816,-0.007293770596494399,0.21893497418189348,1.4538920191431859
-6.458270329289801,0.8062633152128577,9.825457662997668,0.08258263776744491,-0.0021119817951008816,-0.007293770596494399,0.2079861505591018,1.4575932182856295
-6.375687691522357,0.8041513334177568,9.818163892401174,0.08258263776744491,-0.0021119817951008816,-0.007293770596494399,0.20340129440072655,1.439737689480593
-6.293105053754912,0.8020393516226559,9.81087012180468,0.08258263776744491,-0.0021119817951008816,-0.007293770596494399,0.20925527673371466,1.4601586822523516
-6.210522415987468,0.7999273698275551,9.803576351208186,0.08258263776744491,-0.0021119817951008816,-0.007293770596494399,0.20755426050324097,1.4783710661631382
-6.127939778220023,0.7978153880324542,9.796282580611692,0.08258263776744491,-0.0021119817951008816,-0.007293770596494399,0.20373116482657694,1.4629148191964814
-6.0453571404525785,0.7957034062373534,9.788988810015198,0.08258263776744491,-0.0021119817951008816,-0.007293770596494399,0.19636175210602747,1.463613689715856
-5.962774502685134,0.7935914244422525,9.781695039418704,0.08258263776744491,-0.0021119817951008816,-0.007293770596494399,0.19167569781540633,1.4383309428158968
-5.880191864917689,0.7914794426471516,9.77440126882221,0.08258263776744491,-0.0021119817951008816,-0.007293770596494399,0.19283471613833894,1.439753526712246
-5.797609227150245,0.7893674608520508,9.767107498225716,0.08258263776744491,-0.0021119817951008816,-0.007293770596494399,0.2036213083427628,1.4384509119282944
-5.7150265893828,0.7872554790569499,9.759813727629222,0.08258263776744491,-0.0021119817951008816,-0.007293770596494399,0.20170881723562933,1.448239154637471
-5.632443951615356,0.7851434972618491,9.752519957032728,0.08258263776744491,-0.0021119817951008816,-0.007293770596494399,0.20262643558772522,1.448662484859461
-5.549861313847911,0.7830315154667482,9.745226186436234,0.08258263776744491,-0.0021119817951008816,-0.007293770596494399,0.1998617632499392,1.4503076633835055
-5.467278676080467,0.7809195336716473,9.73793241583974,0.08258263776744491,-0.0021119817951008816,-0.007293770596494399,0.19814956304891518,1.4474517775701559
-5.384696038313022,0.7788075518765465,9.730638645243246,0.08258263776744491,-0.0021119817951008816,-0.007293770596494399,0.1953379881092587,1.4542324826901742
-5.3021134005455774,0.7766955700814456,9.723344874646752,0.08258263776744491,-0.0021119817951008816,-0.007293770596494399,0.19413944586893198,1.4470880452555763
-5.219530762778133,0.7745835882863448,9.716051104050258,0.08258263776744491,-0.0021119817951008816,-0.007293770596494399,0.1989268993750438,1.4547131814863221
-5.136948125010688,0.7724716064912439,9.708757333453764,0.08258263776744491,-0.0021119817951008816,-0.007293770596494399,0.20165529513852168,1.4617854697701071
-5.054365487243244,0.770359624696143,9.70146356285727,0.08258263776744491,-0.0021119817951008816,-0.007293770596494399,0.20099931604565377,1.460351133891233
-4.971782849475799,0.7682476429010422,9.694169792260777,0.08258263776744491,-0.0021119817951008816,-0.007293770596494399,0.20396759121364025,1.4737823686125862
-4.889200211708355,0.7661356611059413,9.686876021664283,0.08258263776744491,-0.0021119817951008816,-0.007293770596494399,0.20415831166123563,1.4737124879902763
-4.80661757394091,0.7640236793108405,9.679582251067789,0.08258263776744491,-0.0021119817951008816,-0.007293770596494399,0.20216888946592843,1.4733283356294955
-4.7963143269091555,0.7570489575332464,9.708214215137515,0.01030324703175458,-0.006974721777594025,0.028631964069726644,0.20131255964782824,1.4857537045450402
-4.786011079877401,0.7500742357556524,9.736846179207241,0.01030324703175458,-0.006974721777594025,0.028631964069726644,0.19547990250920938,1.4909473358009628
-4.775707832845646,0.7430995139780583,9.765478143276967,0.01030324703175458,-0.006974721777594025,0.028631964069726644,0.1872897379022515,1.492322584285716
-4.765404585813892,0.7361247922004642,9.794110107346693,0.01030324703175458,-0.006974721777594025,0.028631964069726644,0.1931727771658248,1.4956323143642407
-4.755101338782137,0.7291500704228702,9.82274207141642,0.01030324703175458,-0.006974721777594025,0.028631964069726644,0.19364626048147898,1.4937713807645934
-4.744798091750383,0.7221753486452761,9.851374035486145,0.01030324703175458,-0.006974721777594025,0.028631964069726644,0.19748408443646737,1.4827850075330122
-4.734494844718628,0.715200626867682,9.880005999555872,0.01030324703175458,-0.006974721777594025,0.028631964069726644,0.1891187163500732,1.4835967687880962
-4.724191597686874,0.708225905090088,9.908637963625598,0.01030324703175458,-0.006974721777594025,0.028631964069726644,0.18091251203008527,1.4665926420166704
-4.713888350655119,0.7012511833124939,9.937269927695324,0.01030324703175458,-0.006974721777594025,0.028631964069726644,0.18027151962869356,1.4725865292241511
-4.7035851036233645,0.6942764615348999,9.96590189176505,0.01030324703175458,-0.006974721777594025,0.028631964069726644,0.18537472007850087,1.4695796804440628
-4.69328185659161,0.6873017397573058,9.994533855834776,0.01030324703175458,-0.006974721777594025,0.028631964069726644,0.18773367363628396,1.4651292266686342
-4.646301489616946,0.6772870939642616,9.933947656726312,0.0469803669746639,-0.010014645793044237,-0.06058619910846329,0.18895175682012416,1.4593612664956754
-4.599321122642283,0.6672724481712173,9.873361457617849,0.0469803669746639,-0.010014645793044237,-0.06058619910846329,0.19231618217155258,1.4579703689039283
-4.552340755667619,0.6572578023781731,9.812775258509385,0.0469803669746639,-0.010014645793044237,-0.06058619910846329,0.192607654747945,1.4661973462712041
-4.505360388692956,0.6472431565851289,9.752189059400921,0.0469803669746639,-0.010014645793044237,-0.06058619910846329,0.19069409621619104,1.4884824626803574
-4.458380021718292,0.6372285107920846,9.691602860292457,0.0469803669746639,-0.010014645793044237,-0.06058619910846329,0.199663788570584,1.4758078088895454
-4.4113996547436285,0.6272138649990404,9.631016661183994,0.0469803669746639,-0.010014645793044237,-0.06058619910846329,0.19252196851790632,1.4763471117489781
-4.364419287768965,0.6171992192059962,9.57043046207553,0.0469803669746639,-0.010014645793044237,-0.06058619910846329,0.19688513603805893,1.4716885366608565
-4.317438920794301,0.607184573412952,9.509844262967066,0.0469803669746639,-0.010014645793044237,-0.06058619910846329,0.19161838047933533,1.4615584802995853
-4.270458553819638,0.5971699276199077,9.449258063858602,0.0469803669746639,-0.010014645793044237,-0.06058619910846329,0.19401062751109685,1.4595218660383038
-4.223478186844974,0.5871552818268635,9.388671864750139,0.0469803669746639,-0.010014645793044237,-0.06058619910846329,0.18699324787499863,1.474149750010019
-4.176497819870311,0.5771406360338193,9.328085665641675,0.0469803669746639,-0.010014645793044237,-0.06058619910846329,0.19489267096494386,1.4732597480496767
-4.129517452895647,0.567125990240775,9.267499466533211,0.0469803669746639,-0.010014645793044237,-0.06058619910846329,0.18744281520941672,1.481347089525618
-4.0825370859209835,0.5571113444477308,9.206913267424747,0.0469803669746639,-0.010014645793044237,-0.06058619910846329,0.1879690851151033,1.4914628063738424
-4.03555671894632,0.5470966986546866,9.146327068316284,0.0469803669746639,-0.010014645793044237,-0.06058619910846329,0.18268599198472457,1.4963837002405191
-3.988576351971656,0.5370820528616423,9.08574086920782,0.0469803669746639,-0.010014645793044237,-0.06058619910846329,0.1871043092043354,1.5076311304297156
-3.941595984996992,0.5270674070685981,9.025154670099356,0.0469803669746639,-0.010014645793044237,-0.06058619910846329,0.18095677137887597,1.5127647823365016
