theta,phi,z,dtheta,dphi,dz,ecg,eda
6.076027676094974,0.1483844870229718,9.75415923968396,0.0,0.0,0.0,0.05023269066441666,0.014338778732369604
6.057419759271376,0.13826794442382354,9.822381736345767,-0.01860791682359813,-0.010116542599148261,0.06822249666180764,0.05023269066441666,0.014338778732369604
6.038811842447778,0.12815140182467527,9.890604233007574,-0.01860791682359813,-0.010116542599148261,0.06822249666180764,0.05023269066441666,0.014338778732369604
6.02020392562418,0.118034859225527,9.958826729669381,-0.01860791682359813,-0.010116542599148261,0.06822249666180764,0.05023269066441666,0.014338778732369604
6.020635919125409,0.13616413815431394,9.922582285849549,0.00043199350122880763,0.01812927892878693,-0.03624444381983264,0.05023269066441666,0.014338778732369604
6.021067912626638,0.15429341708310088,9.886337842029716,0.00043199350122880763,0.01812927892878693,-0.03624444381983264,0.07490326644380096,0.014338778732369604
6.0214999061278665,0.1724226960118878,9.850093398209884,0.00043199350122880763,0.01812927892878693,-0.03624444381983264,0.07490326644380096,0.014338778732369604
6.021931899629095,0.19055197494067475,9.813848954390052,0.00043199350122880763,0.01812927892878693,-0.03624444381983264,0.07490326644380096,0.014338778732369604
6.022363893130324,0.20868125386946168,9.77760451057022,0.00043199350122880763,0.01812927892878693,-0.03624444381983264,0.07490326644380096,0.014338778732369604
6.0227958866315525,0.22681053279824862,9.741360066750387,0.00043199350122880763,0.01812927892878693,-0.03624444381983264,0.07490326644380096,0.014338778732369604
6.023227880132781,0.24493981172703555,9.705115622930554,0.00043199350122880763,0.01812927892878693,-0.03624444381983264,0.07490326644380096,0.014338778732369604
6.02365987363401,0.26306909065582246,9.668871179110722,0.00043199350122880763,0.01812927892878693,-0.03624444381983264,0.07490326644380096,0.014338778732369604
6.024091867135239,0.28119836958460936,9.63262673529089,0.00043199350122880763,0.01812927892878693,-0.03624444381983264,0.07490326644380096,0.014338778732369604
6.024523860636467,0.29932764851339627,9.596382291471057,0.00043199350122880763,0.01812927892878693,-0.03624444381983264,0.07490326644380096,0.014338778732369604
6.024955854137696,0.3174569274421832,9.560137847651225,0.00043199350122880763,0.01812927892878693,-0.03624444381983264,0.07490326644380096,0.014338778732369604
6.025387847638925,0.3355862063709701,9.523893403831392,0.00043199350122880763,0.01812927892878693,-0.03624444381983264,0.07490326644380096,0.014338778732369604
6.025819841140153,0.353715485299757,9.48764896001156,0.00043199350122880763,0.01812927892878693,-0.03624444381983264,0.068643507521754,0.014338778732369604
6.026251834641382,0.3718447642285439,9.451404516191728,0.00043199350122880763,0.01812927892878693,-0.03624444381983264,0.06644925980713466,0.014338778732369604
6.026683828142611,0.3899740431573308,9.415160072371895,0.00043199350122880763,0.01812927892878693,-0.03624444381983264,0.0619795018914072,0.014338778732369604
6.027115821643839,0.4081033220861177,9.378915628552063,0.00043199350122880763,0.01812927892878693,-0.03624444381983264,0.06687819991950933,0.014338778732369604
6.027547815145068,0.4262326010149046,9.34267118473223,0.00043199350122880763,0.01812927892878693,-0.03624444381983264,0.06175867709559449,0.014338778732369604
6.027979808646297,0.44436187994369153,9.306426740912398,0.00043199350122880763,0.01812927892878693,-0.03624444381983264,0.06139154506646153,0.014338778732369604
6.0284118021475255,0.46249115887247844,9.270182297092566,0.00043199350122880763,0.01812927892878693,-0.03624444381983264,0.06139154506646153,0.014338778732369604
6.028843795648754,0.48062043780126534,9.233937853272733,0.00043199350122880763,0.01812927892878693,-0.03624444381983264,0.07517161584806611,0.014338778732369604
6.029275789149983,0.49874971673005225,9.197693409452901,0.00043199350122880763,0.01812927892878693,-0.03624444381983264,0.07517161584806611,0.014347505781345773
6.0297077826512115,0.5168789956588392,9.161448965633069,0.00043199350122880763,0.01812927892878693,-0.03624444381983264,0.06979862763784746,0.014377293573475449
6.03013977615244,0.5350082745876261,9.125204521813236,0.00043199350122880763,0.01812927892878693,-0.03624444381983264,0.06979862763784746,0.014415382316846949
6.030571769653669,0.553137553516413,9.088960077993404,0.00043199350122880763,0.01812927892878693,-0.03624444381983264,0.06979862763784746,0.014462792287149091
6.031003763154898,0.5712668324451999,9.052715634173572,0.00043199350122880763,0.01812927892878693,-0.03624444381983264,0.05989514812258478,0.01452054376007069
6.031435756656126,0.5893961113739868,9.01647119035374,0.00043199350122880763,0.01812927892878693,-0.03624444381983264,0.05863253390701959,0.014589657011300558
6.031867750157355,0.6075253903027737,8.980226746533907,0.00043199350122880763,0.01812927892878693,-0.03624444381983264,0.05907324463813175,0.014671152316527514
6.032299743658584,0.6256546692315607,8.943982302714074,0.00043199350122880763,0.01812927892878693,-0.03624444381983264,0.06367179281421098,0.01476604995144037
6.032731737159812,0.6437839481603476,8.907737858894242,0.00043199350122880763,0.01812927892878693,-0.03624444381983264,0.06165065892505862,0.014875370191727948
6.033163730661041,0.6619132270891345,8.87149341507441,0.00043199350122880763,0.01812927892878693,-0.03624444381983264,0.07965407809980515,0.015000133313079056
6.03359572416227,0.6800425060179214,8.835248971254577,0.00043199350122880763,0.01812927892878693,-0.03624444381983264,0.08992789687308253,0.015141359591182518
6.034027717663498,0.6981717849467083,8.799004527434745,0.00043199350122880763,0.01812927892878693,-0.03624444381983264,0.08992789687308253,0.015300069301727141
6.034459711164727,0.7163010638754952,8.762760083614912,0.00043199350122880763,0.01812927892878693,-0.03624444381983264,0.08992789687308253,0.015477282720401745
6.034891704665956,0.7344303428042821,8.72651563979508,0.00043199350122880763,0.01812927892878693,-0.03624444381983264,0.08992789687308253,0.015674020122895146
6.0353236981671845,0.752559621733069,8.690271195975248,0.00043199350122880763,0.01812927892878693,-0.03624444381983264,0.08992789687308253,0.015891301784896155
6.035755691668413,0.7706889006618559,8.654026752155415,0.00043199350122880763,0.01812927892878693,-0.03624444381983264,0.08105035308399117,0.016130147982093595
6.036187685169642,0.7888181795906428,8.617782308335583,0.00043199350122880763,0.01812927892878693,-0.03624444381983264,0.08105035308399117,0.016391578990176275
6.036619678670871,0.8069474585194297,8.58153786451575,0.00043199350122880763,0.01812927892878693,-0.03624444381983264,0.08105035308399117,0.016676615084833018
6.037051672172099,0.8250767374482166,8.545293420695918,0.00043199350122880763,0.01812927892878693,-0.03624444381983264,0.08269102287607855,0.01698627654175263
6.037483665673328,0.8432060163770035,8.509048976876086,0.00043199350122880763,0.01812927892878693,-0.03624444381983264,0.08269102287607855,0.017321583636623932
6.037915659174557,0.8613352953057904,8.472804533056253,0.00043199350122880763,0.01812927892878693,-0.03624444381983264,0.07336091181184418,0.017683556645135743
6.038347652675785,0.8794645742345774,8.436560089236421,0.00043199350122880763,0.01812927892878693,-0.03624444381983264,0.0685974236965609,0.01807321584297687
6.038779646177014,0.8975938531633643,8.400315645416589,0.00043199350122880763,0.01812927892878693,-0.03624444381983264,0.0685974236965609,0.018491581505836133
6.039211639678243,0.9157231320921512,8.364071201596756,0.00043199350122880763,0.01812927892878693,-0.03624444381983264,0.08071397571950012,0.018939673909402353
6.039643633179471,0.9338524110209381,8.327826757776924,0.00043199350122880763,0.01812927892878693,-0.03624444381983264,0.08071397571950012,0.019418513329364336
6.0400756266807,0.951981689949725,8.291582313957091,0.00043199350122880763,0.01812927892878693,-0.03624444381983264,0.07172463684650922,0.019929120041410904
6.034043480048435,0.9558358606887711,8.225660860603105,-0.006032146632264791,0.003854170739046096,-0.0659214533539862,0.07699477894862432,0.02047251432123087
6.0280113334161705,0.9596900314278173,8.159739407249118,-0.006032146632264791,0.003854170739046096,-0.0659214533539862,0.0730719605998102,0.021049716444513047
6.021979186783906,0.9635442021668634,8.093817953895131,-0.006032146632264791,0.003854170739046096,-0.0659214533539862,0.09219965143691367,0.021661746686946256
6.015947040151641,0.9673983729059096,8.027896500541145,-0.006032146632264791,0.003854170739046096,-0.0659214533539862,0.09219965143691367,0.022309625324219307
6.009914893519376,0.9712525436449557,7.961975047187159,-0.006032146632264791,0.003854170739046096,-0.0659214533539862,0.09219965143691367,0.022994372632021025
6.003882746887111,0.9751067143840019,7.896053593833173,-0.006032146632264791,0.003854170739046096,-0.0659214533539862,0.09219965143691367,0.023717008886040215
5.997850600254846,0.978960885123048,7.830132140479187,-0.006032146632264791,0.003854170739046096,-0.0659214533539862,0.09219965143691367,0.024478554361965697
5.991818453622582,0.9828150558620942,7.7642106871252015,-0.006032146632264791,0.003854170739046096,-0.0659214533539862,0.08663009676823188,0.025280029335486287
5.985786306990317,0.9866692266011403,7.698289233771216,-0.006032146632264791,0.003854170739046096,-0.0659214533539862,0.1023598599390723,0.026122454082290802
5.979754160358052,0.9905233973401865,7.63236778041723,-0.006032146632264791,0.003854170739046096,-0.0659214533539862,0.1023598599390723,0.027006848878068056
5.973722013725787,0.9943775680792326,7.566446327063244,-0.006032146632264791,0.003854170739046096,-0.0659214533539862,0.1023598599390723,0.027934233998506863
5.967689867093522,0.9982317388182788,7.500524873709258,-0.006032146632264791,0.003854170739046096,-0.0659214533539862,0.1023598599390723,0.028905629719296038
5.9616577204612575,1.002085909557325,7.434603420355272,-0.006032146632264791,0.003854170739046096,-0.0659214533539862,0.1023598599390723,0.029922056316124403
5.955625573828993,1.005940080296371,7.368681967001287,-0.006032146632264791,0.003854170739046096,-0.0659214533539862,0.11399001032677064,0.030984534064680762
5.949593427196728,1.009794251035417,7.302760513647301,-0.006032146632264791,0.003854170739046096,-0.0659214533539862,0.11399001032677064,0.032094083240653944
5.943561280564463,1.013648421774463,7.236839060293315,-0.006032146632264791,0.003854170739046096,-0.0659214533539862,0.11392318026012907,0.03423612617329118
5.937529133932198,1.017502592513509,7.170917606939329,-0.006032146632264791,0.003854170739046096,-0.0659214533539862,0.1077545519197076,0.036543397011875804
5.9314969872999335,1.021356763252555,7.104996153585343,-0.006032146632264791,0.003854170739046096,-0.0659214533539862,0.1077545519197076,0.03902203441584042
5.925464840667669,1.0252109339916011,7.039074700231358,-0.006032146632264791,0.003854170739046096,-0.0659214533539862,0.10884991775100585,0.04167817704461762
5.919432694035404,1.0290651047306472,6.973153246877372,-0.006032146632264791,0.003854170739046096,-0.0659214533539862,0.10884991775100585,0.044517963557639956
5.913400547403139,1.0329192754696932,6.907231793523386,-0.006032146632264791,0.003854170739046096,-0.0659214533539862,0.11700175744988074,0.04754753261434008
5.907368400770874,1.0367734462087392,6.8413103401694,-0.006032146632264791,0.003854170739046096,-0.0659214533539862,0.1154529701885716,0.050773022874150565
5.901336254138609,1.0406276169477853,6.775388886815414,-0.006032146632264791,0.003854170739046096,-0.0659214533539862,0.11283645209296694,0.054200572996504034
5.895304107506345,1.0444817876868313,6.709467433461429,-0.006032146632264791,0.003854170739046096,-0.0659214533539862,0.12093208678393946,0.05783632164083308
5.88927196087408,1.0483359584258773,6.643545980107443,-0.006032146632264791,0.003854170739046096,-0.0659214533539862,0.12436690822757768,0.06168640746657028
5.883239814241815,1.0521901291649234,6.577624526753457,-0.006032146632264791,0.003854170739046096,-0.0659214533539862,0.13133478813153046,0.06575696913314825
5.87720766760955,1.0560442999039694,6.511703073399471,-0.006032146632264791,0.003854170739046096,-0.0659214533539862,0.14034154796072962,0.0700541452999996
5.871175520977285,1.0598984706430155,6.445781620045485,-0.006032146632264791,0.003854170739046096,-0.0659214533539862,0.14034154796072962,0.07458407462655692
5.8651433743450205,1.0637526413820615,6.3798601666915,-0.006032146632264791,0.003854170739046096,-0.0659214533539862,0.16378496805191503,0.07935289577225278
5.859111227712756,1.0676068121211075,6.313938713337514,-0.006032146632264791,0.003854170739046096,-0.0659214533539862,0.16378496805191503,0.08436674739651982
5.853079081080491,1.0714609828601536,6.248017259983528,-0.006032146632264791,0.003854170739046096,-0.0659214533539862,0.16378496805191503,0.08963176815879062
5.847046934448226,1.0753151535991996,6.182095806629542,-0.006032146632264791,0.003854170739046096,-0.0659214533539862,0.16378496805191503,0.09515409671849777
5.841014787815961,1.0791693243382456,6.116174353275556,-0.006032146632264791,0.003854170739046096,-0.0659214533539862,0.16378496805191503,0.10093987173507386
5.8349826411836965,1.0830234950772917,6.050252899921571,-0.006032146632264791,0.003854170739046096,-0.0659214533539862,0.16378496805191503,0.10699523186795154
5.828950494551432,1.0868776658163377,5.984331446567585,-0.006032146632264791,0.003854170739046096,-0.0659214533539862,0.16378496805191503,0.11332631577656335
5.822918347919167,1.0907318365553837,5.918409993213599,-0.006032146632264791,0.003854170739046096,-0.0659214533539862,0.16378496805191503,0.11993926212034195
5.816886201286902,1.0945860072944298,5.852488539859613,-0.006032146632264791,0.003854170739046096,-0.0659214533539862,0.15391616538434624,0.12684020955871986
5.810854054654637,1.0984401780334758,5.786567086505627,-0.006032146632264791,0.003854170739046096,-0.0659214533539862,0.15391616538434624,0.1340352967511297
5.804821908022372,1.1022943487725219,5.7206456331516415,-0.006032146632264791,0.003854170739046096,-0.0659214533539862,0.15591369936265184,0.14153066235700415
5.798789761390108,1.106148519511568,5.654724179797656,-0.006032146632264791,0.003854170739046096,-0.0659214533539862,0.1490981315699325,0.1493324450357757
5.792757614757843,1.110002690250614,5.58880272644367,-0.006032146632264791,0.003854170739046096,-0.0659214533539862,0.15913024035422127,0.157446783446877
5.786725468125578,1.11385686098966,5.522881273089684,-0.006032146632264791,0.003854170739046096,-0.0659214533539862,0.17691285942528462,0.16587981624974063
5.780693321493313,1.117711031728706,5.456959819735698,-0.006032146632264791,0.003854170739046096,-0.0659214533539862,0.17086745922823357,0.17463768210379924
5.774661174861048,1.121565202467752,5.3910383663817125,-0.006032146632264791,0.003854170739046096,-0.0659214533539862,0.19466621245497412,0.18372651966848536
5.7686290282287835,1.125419373206798,5.325116913027727,-0.006032146632264791,0.003854170739046096,-0.0659214533539862,0.19006749453078992,0.19315246760323163
5.762596881596519,1.1292735439458441,5.259195459673741,-0.006032146632264791,0.003854170739046096,-0.0659214533539862,0.18194936105097073,0.20292166456747063
5.756564734964254,1.1331277146848902,5.193274006319755,-0.006032146632264791,0.003854170739046096,-0.0659214533539862,0.18799332140623284,0.21304024922063494
5.750532588331989,1.1369818854239362,5.127352552965769,-0.006032146632264791,0.003854170739046096,-0.0659214533539862,0.19777255615638498,0.2235143602221572
5.744500441699724,1.1408360561629822,5.0614310996117835,-0.006032146632264791,0.003854170739046096,-0.0659214533539862,0.21985972455912026,0.23435013623147002
5.7384682950674595,1.1446902269020283,4.995509646257798,-0.006032146632264791,0.003854170739046096,-0.0659214533539862,0.2100319690333032,0.2455537159080059
5.732436148435195,1.1485443976410743,4.929588192903812,-0.006032146632264791,0.003854170739046096,-0.0659214533539862,0.2106220829434745,0.2571312379111976
5.745405303955078,1.1487426785490167,4.902460057728519,0.01296915551988338,0.00019828090794229107,-0.027128135175292795,0.21168838541161172,0.2690888409004775
5.758374459474961,1.148940959456959,4.875331922553227,0.01296915551988338,0.00019828090794229107,-0.027128135175292795,0.21339076452151665,0.28143266353527846
5.771343614994844,1.1491392403649014,4.848203787377934,0.01296915551988338,0.00019828090794229107,-0.027128135175292795,0.20370405058596322,0.29416884447503283
5.7843127705147275,1.1493375212728438,4.821075652202642,0.01296915551988338,0.00019828090794229107,-0.027128135175292795,0.22767151419529028,0.3073035223791734
5.797281926034611,1.1495358021807862,4.793947517027349,0.01296915551988338,0.00019828090794229107,-0.027128135175292795,0.22203135299105722,0.32084283590713264
5.810251081554494,1.1497340830887286,4.766819381852057,0.01296915551988338,0.00019828090794229107,-0.027128135175292795,0.23127616695901476,0.3347929237183432
5.823220237074377,1.149932363996671,4.739691246676764,0.01296915551988338,0.00019828090794229107,-0.027128135175292795,0.2394804353293647,0.3491599244722377
5.83618939259426,1.1501306449046134,4.7125631115014714,0.01296915551988338,0.00019828090794229107,-0.027128135175292795,0.23678088315118387,0.3639499768282487
5.8491585481141435,1.1503289258125557,4.685434976326179,0.01296915551988338,0.00019828090794229107,-0.027128135175292795,0.24678561160950602,0.37916921944580884
5.862127703634027,1.1505272067204981,4.658306841150886,0.01296915551988338,0.00019828090794229107,-0.027128135175292795,0.24962997833864925,0.39482379098435066
5.87509685915391,1.1507254876284405,4.631178705975594,0.01296915551988338,0.00019828090794229107,-0.027128135175292795,0.24890484068817315,0.4109198301033068
5.888066014673793,1.150923768536383,4.604050570800301,0.01296915551988338,0.00019828090794229107,-0.027128135175292795,0.24762856914954767,0.42746347546210983
5.901035170193676,1.1511220494443253,4.576922435625009,0.01296915551988338,0.00019828090794229107,-0.027128135175292795,0.24329257368161636,0.4444608657201924
5.9140043257135595,1.1513203303522677,4.549794300449716,0.01296915551988338,0.00019828090794229107,-0.027128135175292795,0.24329257368161636,0.461918139536987
5.926973481233443,1.15151861126021,4.5226661652744236,0.01296915551988338,0.00019828090794229107,-0.027128135175292795,0.24243364039096782,0.4798414355719264
5.939942636753326,1.1517168921681524,4.495538030099131,0.01296915551988338,0.00019828090794229107,-0.027128135175292795,0.26555468817767536,0.4873540509799332
5.952911792273209,1.1519151730760948,4.468409894923838,0.01296915551988338,0.00019828090794229107,-0.027128135175292795,0.2564260644230369,0.49494705485332346
5.965880947793092,1.1521134539840372,4.441281759748546,0.01296915551988338,0.00019828090794229107,-0.027128135175292795,0.24668197883588053,0.5026208750041755
5.9788501033129755,1.1523117348919796,4.414153624573253,0.01296915551988338,0.00019828090794229107,-0.027128135175292795,0.25654643249564657,0.5103759392445671
5.991819258832859,1.152510015799922,4.387025489397961,0.01296915551988338,0.00019828090794229107,-0.027128135175292795,0.24791157069526853,0.5182126753865766
6.004788414352742,1.1527082967078643,4.359897354222668,0.01296915551988338,0.00019828090794229107,-0.027128135175292795,0.2500085222452249,0.5261315112422815
6.017757569872625,1.1529065776158067,4.332769219047376,0.01296915551988338,0.00019828090794229107,-0.027128135175292795,0.2659890019553461,0.5341328746237602
6.030726725392508,1.153104858523749,4.305641083872083,0.01296915551988338,0.00019828090794229107,-0.027128135175292795,0.26686128850406265,0.5422171933430907
6.0436958809123915,1.1533031394316915,4.2785129486967906,0.01296915551988338,0.00019828090794229107,-0.027128135175292795,0.26686128850406265,0.5503848952123508
6.056665036432275,1.1535014203396339,4.251384813521498,0.01296915551988338,0.00019828090794229107,-0.027128135175292795,0.2740051236240598,0.5586364080436187
6.069634191952158,1.1536997012475763,4.224256678346205,0.01296915551988338,0.00019828090794229107,-0.027128135175292795,0.2740051236240598,0.5669721596489724
6.082603347472041,1.1538979821555186,4.197128543170913,0.01296915551988338,0.00019828090794229107,-0.027128135175292795,0.2795669317411366,0.5753925778404897
6.095572502991924,1.154096263063461,4.17000040799562,0.01296915551988338,0.00019828090794229107,-0.027128135175292795,0.27831301147832377,0.583898090430249
6.1085416585118075,1.1542945439714034,4.142872272820328,0.01296915551988338,0.00019828090794229107,-0.027128135175292795,0.2719358647706835,0.5924891252303279
6.121510814031691,1.1544928248793458,4.115744137645035,0.01296915551988338,0.00019828090794229107,-0.027128135175292795,0.27016186774315487,0.6011661100528046
6.134479969551574,1.1546911057872882,4.088616002469743,0.01296915551988338,0.00019828090794229107,-0.027128135175292795,0.27016186774315487,0.6099294727097573
6.147449125071457,1.1548893866952306,4.06148786729445,0.01296915551988338,0.00019828090794229107,-0.027128135175292795,0.2840330186361468,0.6187796410132638
6.16041828059134,1.155087667603173,4.0343597321191575,0.01296915551988338,0.00019828090794229107,-0.027128135175292795,0.2770337726254728,0.6277170427754021
6.1733874361112235,1.1552859485111153,4.007231596943865,0.01296915551988338,0.00019828090794229107,-0.027128135175292795,0.29127115025948386,0.6367421058082502
6.186356591631107,1.1554842294190577,3.980103461768572,0.01296915551988338,0.00019828090794229107,-0.027128135175292795,0.2913939997423236,0.6458552579238862
6.19932574715099,1.155682510327,3.952975326593279,0.01296915551988338,0.00019828090794229107,-0.027128135175292795,0.29313768889433606,0.6550569269343881
6.212294902670873,1.1558807912349425,3.925847191417986,0.01296915551988338,0.00019828090794229107,-0.027128135175292795,0.29011647869926055,0.6643475406518339
6.225264058190756,1.1560790721428849,3.898719056242693,0.01296915551988338,0.00019828090794229107,-0.027128135175292795,0.3252923813030787,0.6737275268883016
6.2382332137106395,1.1562773530508272,3.8715909210674,0.01296915551988338,0.00019828090794229107,-0.027128135175292795,0.3252923813030787,0.6831973134558693
6.251202369230523,1.1564756339587696,3.844462785892107,0.01296915551988338,0.00019828090794229107,-0.027128135175292795,0.3252923813030787,0.692757328166615
6.264171524750406,1.156673914866712,3.817334650716814,0.01296915551988338,0.00019828090794229107,-0.027128135175292795,0.3179269984454178,0.7024079988326165
6.277140680270289,1.1568721957746544,3.790206515541521,0.01296915551988338,0.00019828090794229107,-0.027128135175292795,0.3179269984454178,0.7121497532659521
6.290109835790172,1.1570704766825968,3.763078380366228,0.01296915551988338,0.00019828090794229107,-0.027128135175292795,0.3414859073044509,0.7219830192786997
6.303078991310056,1.1572687575905392,3.735950245190935,0.01296915551988338,0.00019828090794229107,-0.027128135175292795,0.3414859073044509,0.7319082246829371
6.316048146829939,1.1574670384984815,3.708822110015642,0.01296915551988338,0.00019828090794229107,-0.027128135175292795,0.3414859073044509,0.7419257972907427
6.329017302349822,1.157665319406424,3.681693974840349,0.01296915551988338,0.00019828090794229107,-0.027128135175292795,0.3414859073044509,0.7520361649141942
6.341986457869705,1.1578636003143663,3.654565839665056,0.01296915551988338,0.00019828090794229107,-0.027128135175292795,0.3348515092437731,0.7622397553653698
6.354955613389588,1.1580618812223087,3.627437704489763,0.01296915551988338,0.00019828090794229107,-0.027128135175292795,0.326740787551854,0.7725369964563475
6.367924768909472,1.158260162130251,3.60030956931447,0.01296915551988338,0.00019828090794229107,-0.027128135175292795,0.3331228993835475,0.7829283159992053
6.380893924429355,1.1584584430381935,3.573181434139177,0.01296915551988338,0.00019828090794229107,-0.027128135175292795,0.3570134525912567,0.7934141418060214
6.393863079949238,1.1586567239461358,3.546053298963884,0.01296915551988338,0.00019828090794229107,-0.027128135175292795,0.3570134525912567,0.8039949016888734
6.406832235469121,1.1588550048540782,3.518925163788591,0.01296915551988338,0.00019828090794229107,-0.027128135175292795,0.3570134525912567,0.8146710234598393
6.419801390989004,1.1590532857620206,3.491797028613298,0.01296915551988338,0.00019828090794229107,-0.027128135175292795,0.3570134525912567,0.8254429349309979
6.432770546508888,1.159251566669963,3.464668893438005,0.01296915551988338,0.00019828090794229107,-0.027128135175292795,0.3570134525912567,0.8363110639144266
6.445739702028771,1.1594498475779054,3.437540758262712,0.01296915551988338,0.00019828090794229107,-0.027128135175292795,0.35352140105486113,0.8472758382222031
6.458708857548654,1.1596481284858478,3.410412623087419,0.01296915551988338,0.00019828090794229107,-0.027128135175292795,0.35352140105486113,0.8583376856664056
6.471678013068537,1.1598464093937901,3.383284487912126,0.01296915551988338,0.00019828090794229107,-0.027128135175292795,0.34381082844762045,0.8694970340591127
6.48464716858842,1.1600446903017325,3.356156352736833,0.01296915551988338,0.00019828090794229107,-0.027128135175292795,0.34381082844762045,0.8807543112124022
6.497616324108304,1.160242971209675,3.32902821756154,0.01296915551988338,0.00019828090794229107,-0.027128135175292795,0.34381082844762045,0.8921099449383514
6.510585479628187,1.1604412521176173,3.301900082386247,0.01296915551988338,0.00019828090794229107,-0.027128135175292795,0.34381082844762045,0.9035643630490388
6.52355463514807,1.1606395330255597,3.274771947210954,0.01296915551988338,0.00019828090794229107,-0.027128135175292795,0.36132155055080195,0.9151179933565429
6.536523790667953,1.160837813933502,3.247643812035661,0.01296915551988338,0.00019828090794229107,-0.027128135175292795,0.36132155055080195,0.9267712636729412
6.549492946187836,1.1610360948414444,3.220515676860368,0.01296915551988338,0.00019828090794229107,-0.027128135175292795,0.36132155055080195,0.9385246018103114
6.561506789032517,1.1520145454052113,3.2501328366380786,0.012013842844680859,-0.009021549436233211,0.029617159777710685,0.35699225125694545,0.9503784355807318
6.573520631877198,1.1429929959689782,3.2797499964157892,0.012013842844680859,-0.009021549436233211,0.029617159777710685,0.382250964053126,0.9623331927962809
6.585534474721879,1.133971446532745,3.3093671561935,0.012013842844680859,-0.009021549436233211,0.029617159777710685,0.3837948872750545,0.9743893012690362
6.5975483175665595,1.124949897096512,3.3389843159712105,0.012013842844680859,-0.009021549436233211,0.029617159777710685,0.3780865427996767,0.9865471888110757
6.60956216041124,1.1159283476602788,3.368601475748921,0.012013842844680859,-0.009021549436233211,0.029617159777710685,0.37307848939193783,0.9988072832344774
6.621576003255921,1.1069067982240457,3.3982186355266317,0.012013842844680859,-0.009021549436233211,0.029617159777710685,0.36424538977648013,1.0111700123513199
6.633589846100602,1.0978852487878126,3.4278357953043423,0.012013842844680859,-0.009021549436233211,0.029617159777710685,0.3727407127574783,1.0236358039736806
6.6456036889452825,1.0888636993515795,3.457452955082053,0.012013842844680859,-0.009021549436233211,0.029617159777710685,0.3659038400997117,1.0362050859136374
6.657617531789963,1.0798421499153463,3.4870701148597636,0.012013842844680859,-0.009021549436233211,0.029617159777710685,0.3659038400997117,1.0488782859832686
6.669631374634644,1.0708206004791132,3.516687274637474,0.012013842844680859,-0.009021549436233211,0.029617159777710685,0.3659038400997117,1.0616558319946527
6.681645217479325,1.06179905104288,3.546304434415185,0.012013842844680859,-0.009021549436233211,0.029617159777710685,0.3659038400997117,1.0745381517598669
6.693659060324006,1.052777501606647,3.5759215941928955,0.012013842844680859,-0.009021549436233211,0.029617159777710685,0.3659038400997117,1.0875256730909895
6.705672903168686,1.0437559521704138,3.605538753970606,0.012013842844680859,-0.009021549436233211,0.029617159777710685,0.37134259239690914,1.1006188238000982
6.717686746013367,1.0347344027341807,3.6351559137483167,0.012013842844680859,-0.009021549436233211,0.029617159777710685,0.37134259239690914,1.1138180316992718
6.729700588858048,1.0257128532979476,3.6647730735260273,0.012013842844680859,-0.009021549436233211,0.029617159777710685,0.37134259239690914,1.127123724600588
6.741714431702729,1.0166913038617145,3.694390233303738,0.012013842844680859,-0.009021549436233211,0.029617159777710685,0.37134259239690914,1.127123724600588
6.753728274547409,1.0076697544254813,3.7240073930814486,0.012013842844680859,-0.009021549436233211,0.029617159777710685,0.37134259239690914,1.127123724600588
6.76574211739209,0.9986482049892481,3.753624552859159,0.012013842844680859,-0.009021549436233211,0.029617159777710685,0.37134259239690914,1.127123724600588
6.777755960236771,0.9896266555530149,3.78324171263687,0.012013842844680859,-0.009021549436233211,0.029617159777710685,0.37134259239690914,1.127123724600588
6.789769803081452,0.9806051061167816,3.8128588724145804,0.012013842844680859,-0.009021549436233211,0.029617159777710685,0.37134259239690914,1.127123724600588
6.8017836459261325,0.9715835566805484,3.842476032192291,0.012013842844680859,-0.009021549436233211,0.029617159777710685,0.37134259239690914,1.127123724600588
6.813797488770813,0.9625620072443152,3.8720931919700017,0.012013842844680859,-0.009021549436233211,0.029617159777710685,0.37134259239690914,1.127123724600588
6.825811331615494,0.9535404578080819,3.9017103517477123,0.012013842844680859,-0.009021549436233211,0.029617159777710685,0.37134259239690914,1.127123724600588
6.837825174460175,0.9445189083718487,3.931327511525423,0.012013842844680859,-0.009021549436233211,0.029617159777710685,0.37312803781550624,1.127123724600588
6.849839017304856,0.9354973589356155,3.9609446713031335,0.012013842844680859,-0.009021549436233211,0.029617159777710685,0.367711069564887,1.127123724600588
6.861852860149536,0.9264758094993822,3.990561831080844,0.012013842844680859,-0.009021549436233211,0.029617159777710685,0.3690967265197525,1.127123724600588
6.873866702994217,0.917454260063149,4.020178990858555,0.012013842844680859,-0.009021549436233211,0.029617159777710685,0.36547904580758744,1.127123724600588
6.885880545838898,0.9084327106269158,4.049796150636266,0.012013842844680859,-0.009021549436233211,0.029617159777710685,0.36019039687451254,1.127123724600588
6.897894388683579,0.8994111611906825,4.079413310413977,0.012013842844680859,-0.009021549436233211,0.029617159777710685,0.3590351406755829,1.127123724600588
6.909908231528259,0.8903896117544493,4.109030470191688,0.012013842844680859,-0.009021549436233211,0.029617159777710685,0.36329181639545133,1.127123724600588
6.92192207437294,0.8813680623182161,4.138647629969399,0.012013842844680859,-0.009021549436233211,0.029617159777710685,0.36113488614050865,1.127123724600588
6.933935917217621,0.8723465128819828,4.16826478974711,0.012013842844680859,-0.009021549436233211,0.029617159777710685,0.3612722415319847,1.127123724600588
6.945949760062302,0.8633249634457496,4.197881949524821,0.012013842844680859,-0.009021549436233211,0.029617159777710685,0.3589841993785937,1.127123724600588
6.9579636029069825,0.8543034140095164,4.227499109302532,0.012013842844680859,-0.009021549436233211,0.029617159777710685,0.3582364245312992,1.127123724600588
6.969977445751663,0.8452818645732831,4.257116269080243,0.012013842844680859,-0.009021549436233211,0.029617159777710685,0.3602471536714239,1.127123724600588
6.981991288596344,0.8362603151370499,4.286733428857954,0.012013842844680859,-0.009021549436233211,0.029617159777710685,0.3610470503334276,1.127123724600588
6.994005131441025,0.8272387657008167,4.3163505886356655,0.012013842844680859,-0.009021549436233211,0.029617159777710685,0.35400407481266727,1.127123724600588
7.0060189742857055,0.8182172162645834,4.3459677484133765,0.012013842844680859,-0.009021549436233211,0.029617159777710685,0.35746889226371287,1.127123724600588
7.018032817130386,0.8091956668283502,4.375584908191088,0.012013842844680859,-0.009021549436233211,0.029617159777710685,0.360600571283843,1.127123724600588
7.030046659975067,0.800174117392117,4.405202067968799,0.012013842844680859,-0.009021549436233211,0.029617159777710685,0.3578294129751129,1.127123724600588
7.042060502819748,0.7911525679558837,4.43481922774651,0.012013842844680859,-0.009021549436233211,0.029617159777710685,0.35598755670917265,1.127123724600588
7.054074345664429,0.7821310185196505,4.464436387524221,0.012013842844680859,-0.009021549436233211,0.029617159777710685,0.3552089373015962,1.127123724600588
7.066088188509109,0.7731094690834173,4.494053547301932,0.012013842844680859,-0.009021549436233211,0.029617159777710685,0.35862191580278546,1.127123724600588
7.07810203135379,0.764087919647184,4.523670707079643,0.012013842844680859,-0.009021549436233211,0.029617159777710685,0.35036634840035186,1.127123724600588
7.090115874198471,0.7550663702109508,4.553287866857354,0.012013842844680859,-0.009021549436233211,0.029617159777710685,0.3438080617172645,1.127123724600588
7.102129717043152,0.7460448207747176,4.582905026635065,0.012013842844680859,-0.009021549436233211,0.029617159777710685,0.3483150624605869,1.127123724600588
7.114143559887832,0.7370232713384843,4.612522186412776,0.012013842844680859,-0.009021549436233211,0.029617159777710685,0.34303442526178596,1.127123724600588
7.126157402732513,0.7280017219022511,4.642139346190487,0.012013842844680859,-0.009021549436233211,0.029617159777710685,0.33242427069099745,1.127123724600588
7.138171245577194,0.7189801724660179,4.671756505968198,0.012013842844680859,-0.009021549436233211,0.029617159777710685,0.3404381945038164,1.127123724600588
7.150185088421875,0.7099586230297846,4.701373665745909,0.012013842844680859,-0.009021549436233211,0.029617159777710685,0.3385967383473549,1.127123724600588
7.1621989312665555,0.7009370735935514,4.73099082552362,0.012013842844680859,-0.009021549436233211,0.029617159777710685,0.3326914630047035,1.127123724600588
7.174212774111236,0.6919155241573182,4.7606079853013314,0.012013842844680859,-0.009021549436233211,0.029617159777710685,0.3374601182495059,1.127123724600588
7.186226616955917,0.6828939747210849,4.7902251450790425,0.012013842844680859,-0.009021549436233211,0.029617159777710685,0.3387032436687521,1.127123724600588
7.198240459800598,0.6738724252848517,4.819842304856754,0.012013842844680859,-0.009021549436233211,0.029617159777710685,0.3455718494429927,1.127123724600588
7.205418321585388,0.6720419138158831,4.841372197350754,0.0071778617847907235,-0.0018305114689685822,0.02152989249400045,0.34642877730091204,1.127123724600588
7.212596183370179,0.6702114023469145,4.862902089844755,0.0071778617847907235,-0.0018305114689685822,0.02152989249400045,0.34648448061211495,1.127123724600588
7.21977404515497,0.6683808908779458,4.884431982338755,0.0071778617847907235,-0.0018305114689685822,0.02152989249400045,0.3448263122798029,1.127123724600588
7.22695190693976,0.6665503794089772,4.905961874832756,0.0071778617847907235,-0.0018305114689685822,0.02152989249400045,0.3470647518145106,1.1299585461461787
7.234129768724551,0.6647198679400086,4.927491767326757,0.0071778617847907235,-0.0018305114689685822,0.02152989249400045,0.34715429696972644,1.147302389366254
7.241307630509342,0.66288935647104,4.949021659820757,0.0071778617847907235,-0.0018305114689685822,0.02152989249400045,0.33492902939813324,1.1374318638596497
7.248485492294132,0.6610588450020713,4.970551552314758,0.0071778617847907235,-0.0018305114689685822,0.02152989249400045,0.3262418923953085,1.1278364353631467
7.255663354078923,0.6592283335331027,4.9920814448087585,0.0071778617847907235,-0.0018305114689685822,0.02152989249400045,0.33084870001437267,1.1124739926489682
7.2628412158637135,0.6573978220641341,5.013611337302759,0.0071778617847907235,-0.0018305114689685822,0.02152989249400045,0.3283259904875626,1.1113523534461982
7.270019077648504,0.6555673105951655,5.03514122979676,0.0071778617847907235,-0.0018305114689685822,0.02152989249400045,0.32480709083975934,1.110867422561483
7.277196939433295,0.6537367991261969,5.05667112229076,0.0071778617847907235,-0.0018305114689685822,0.02152989249400045,0.3241207002615279,1.105528669981093
7.284374801218085,0.6519062876572282,5.078201014784761,0.0071778617847907235,-0.0018305114689685822,0.02152989249400045,0.32045720840984215,1.130165281023009
7.291552663002876,0.6500757761882596,5.0997309072787615,0.0071778617847907235,-0.0018305114689685822,0.02152989249400045,0.3173427224005067,1.1127834502584986
7.298730524787667,0.648245264719291,5.121260799772762,0.0071778617847907235,-0.0018305114689685822,0.02152989249400045,0.31237016167563053,1.109893238531536
7.305908386572457,0.6464147532503224,5.142790692266763,0.0071778617847907235,-0.0018305114689685822,0.02152989249400045,0.3116199443698458,1.1285311258017197
7.313086248357248,0.6445842417813538,5.164320584760763,0.0071778617847907235,-0.0018305114689685822,0.02152989249400045,0.31115750991484753,1.127742545063736
7.3202641101420385,0.6427537303123851,5.185850477254764,0.0071778617847907235,-0.0018305114689685822,0.02152989249400045,0.2991487646021473,1.1286286697744126
7.327441971926829,0.6409232188434165,5.207380369748765,0.0071778617847907235,-0.0018305114689685822,0.02152989249400045,0.2992846700250245,1.1393892207933534
7.33461983371162,0.6390927073744479,5.228910262242765,0.0071778617847907235,-0.0018305114689685822,0.02152989249400045,0.30416779935769733,1.1354374111668508
7.34179769549641,0.6372621959054793,5.250440154736766,0.0071778617847907235,-0.0018305114689685822,0.02152989249400045,0.31123301967706823,1.132502048011965
7.348975557281201,0.6354316844365107,5.2719700472307665,0.0071778617847907235,-0.0018305114689685822,0.02152989249400045,0.315406443121654,1.1346722504262723
7.356153419065992,0.633601172967542,5.293499939724767,0.0071778617847907235,-0.0018305114689685822,0.02152989249400045,0.3116971709791673,1.1234207650890475
7.363331280850782,0.6317706614985734,5.315029832218768,0.0071778617847907235,-0.0018305114689685822,0.02152989249400045,0.30446058147050936,1.1332892659130975
7.370509142635573,0.6299401500296048,5.336559724712768,0.0071778617847907235,-0.0018305114689685822,0.02152989249400045,0.3121946700959504,1.1490930009089504
7.3776870044203635,0.6281096385606362,5.358089617206769,0.0071778617847907235,-0.0018305114689685822,0.02152989249400045,0.30603564611402945,1.146688131766809
7.384864866205154,0.6262791270916676,5.3796195097007695,0.0071778617847907235,-0.0018305114689685822,0.02152989249400045,0.3063835780141822,1.1512414267307227
7.392042727989945,0.6244486156226989,5.40114940219477,0.0071778617847907235,-0.0018305114689685822,0.02152989249400045,0.3116227109163667,1.142725555261477
7.399220589774735,0.6226181041537303,5.422679294688771,0.0071778617847907235,-0.0018305114689685822,0.02152989249400045,0.30974832283107967,1.1428065253398847
7.406398451559526,0.6207875926847617,5.444209187182771,0.0071778617847907235,-0.0018305114689685822,0.02152989249400045,0.3031035672685023,1.132138432479438
7.413576313344317,0.6189570812157931,5.465739079676772,0.0071778617847907235,-0.0018305114689685822,0.02152989249400045,0.30622947200684314,1.1330791541096479
7.420754175129107,0.6171265697468244,5.487268972170773,0.0071778617847907235,-0.0018305114689685822,0.02152989249400045,0.30922955086018744,1.147436667543927
7.427932036913898,0.6152960582778558,5.508798864664773,0.0071778617847907235,-0.0018305114689685822,0.02152989249400045,0.3135824253263214,1.1564239281769308
7.4351098986986885,0.6134655468088872,5.530328757158774,0.0071778617847907235,-0.0018305114689685822,0.02152989249400045,0.3159174275871546,1.1399709462571401
7.442287760483479,0.6116350353399186,5.551858649652774,0.0071778617847907235,-0.0018305114689685822,0.02152989249400045,0.3122827494501054,1.1491471212543616
7.44946562226827,0.60980452387095,5.573388542146775,0.0071778617847907235,-0.0018305114689685822,0.02152989249400045,0.3213730996613587,1.1525603812673122
7.45664348405306,0.6079740124019813,5.594918434640776,0.0071778617847907235,-0.0018305114689685822,0.02152989249400045,0.3203283808935034,1.1403065639418366
7.463821345837851,0.6061435009330127,5.616448327134776,0.0071778617847907235,-0.0018305114689685822,0.02152989249400045,0.3262414204979335,1.1334222822164954
7.470999207622642,0.6043129894640441,5.637978219628777,0.0071778617847907235,-0.0018305114689685822,0.02152989249400045,0.32135856895818,1.1266690905512247
7.478177069407432,0.6024824779950755,5.6595081121227775,0.0071778617847907235,-0.0018305114689685822,0.02152989249400045,0.3250488115396511,1.1115863741270644
7.485354931192223,0.6006519665261069,5.681038004616778,0.0071778617847907235,-0.0018305114689685822,0.02152989249400045,0.318444165030155,1.1111726509989654
7.492532792977014,0.5988214550571382,5.702567897110779,0.0071778617847907235,-0.0018305114689685822,0.02152989249400045,0.3119931547308419,1.093530504511205
7.499710654761804,0.5969909435881696,5.724097789604779,0.0071778617847907235,-0.0018305114689685822,0.02152989249400045,0.3114198368204796,1.0966559095929038
7.506888516546595,0.595160432119201,5.74562768209878,0.0071778617847907235,-0.0018305114689685822,0.02152989249400045,0.3088799446304121,1.1024230978549894
7.5140663783313855,0.5933299206502324,5.7671575745927806,0.0071778617847907235,-0.0018305114689685822,0.02152989249400045,0.3023060158314859,1.1081855678412063
7.521244240116176,0.5914994091812638,5.788687467086781,0.0071778617847907235,-0.0018305114689685822,0.02152989249400045,0.3004536552828594,1.109163367453949
7.528422101900967,0.5896688977122951,5.810217359580782,0.0071778617847907235,-0.0018305114689685822,0.02152989249400045,0.29968558240566917,1.1152471821048475
7.535599963685757,0.5878383862433265,5.831747252074782,0.0071778617847907235,-0.0018305114689685822,0.02152989249400045,0.2977149711536369,1.104665838212607
7.542777825470548,0.5860078747743579,5.853277144568783,0.0071778617847907235,-0.0018305114689685822,0.02152989249400045,0.2935945229370565,1.1157805328505477
7.549955687255339,0.5841773633053893,5.874807037062784,0.0071778617847907235,-0.0018305114689685822,0.02152989249400045,0.29190245487396155,1.106417403947006
7.557133549040129,0.5823468518364207,5.896336929556784,0.0071778617847907235,-0.0018305114689685822,0.02152989249400045,0.2958195319842542,1.1046769659662172
7.56431141082492,0.580516340367452,5.917866822050785,0.0071778617847907235,-0.0018305114689685822,0.02152989249400045,0.2966577748604007,1.1113532121653598
7.5714892726097105,0.5786858288984834,5.9393967145447855,0.0071778617847907235,-0.0018305114689685822,0.02152989249400045,0.2961329421437573,1.104785085463474
7.578667134394501,0.5768553174295148,5.960926607038786,0.0071778617847907235,-0.0018305114689685822,0.02152989249400045,0.28643579015571424,1.0996336358290657
7.585844996179292,0.5750248059605462,5.982456499532787,0.0071778617847907235,-0.0018305114689685822,0.02152989249400045,0.2868319062722616,1.105033738637266
7.593022857964082,0.5731942944915775,6.003986392026787,0.0071778617847907235,-0.0018305114689685822,0.02152989249400045,0.28690141662616647,1.0973196084831665
7.600200719748873,0.5713637830226089,6.025516284520788,0.0071778617847907235,-0.0018305114689685822,0.02152989249400045,0.28207013394915126,1.084495957798578
7.607378581533664,0.5695332715536403,6.0470461770147885,0.0071778617847907235,-0.0018305114689685822,0.02152989249400045,0.2759591002554784,1.0843227968623048
7.614556443318454,0.5677027600846717,6.068576069508789,0.0071778617847907235,-0.0018305114689685822,0.02152989249400045,0.2735038246848639,1.0834838581921498
7.621734305103245,0.5658722486157031,6.09010596200279,0.0071778617847907235,-0.0018305114689685822,0.02152989249400045,0.26429102934526566,1.0738081973075408
7.6289121668880355,0.5640417371467344,6.11163585449679,0.0071778617847907235,-0.0018305114689685822,0.02152989249400045,0.26688223013047657,1.0710612735711267
7.636090028672826,0.5622112256777658,6.133165746990791,0.0071778617847907235,-0.0018305114689685822,0.02152989249400045,0.2635274982735061,1.061127349466269
7.643267890457617,0.5603807142087972,6.154695639484792,0.0071778617847907235,-0.0018305114689685822,0.02152989249400045,0.26761398298962036,1.0608662149856638
7.650445752242407,0.5585502027398286,6.176225531978792,0.0071778617847907235,-0.0018305114689685822,0.02152989249400045,0.26821527926089983,1.0526979670306125
7.657623614027198,0.55671969127086,6.197755424472793,0.0071778617847907235,-0.0018305114689685822,0.02152989249400045,0.26703129442078355,1.0803742823970757
7.664801475811989,0.5548891798018913,6.219285316966793,0.0071778617847907235,-0.0018305114689685822,0.02152989249400045,0.2698751646787223,1.0873342405979138
7.671979337596779,0.5530586683329227,6.240815209460794,0.0071778617847907235,-0.0018305114689685822,0.02152989249400045,0.26086180047815116,1.0810428763072835
7.67915719938157,0.5512281568639541,6.262345101954795,0.0071778617847907235,-0.0018305114689685822,0.02152989249400045,0.2592057619650507,1.0870299119031612
7.686335061166361,0.5493976453949855,6.283874994448795,0.0071778617847907235,-0.0018305114689685822,0.02152989249400045,0.25906107849806037,1.101618942882883
7.693512922951151,0.5475671339260169,6.305404886942796,0.0071778617847907235,-0.0018305114689685822,0.02152989249400045,0.254207247099209,1.094591642510282
7.700690784735942,0.5457366224570482,6.3269347794367965,0.0071778617847907235,-0.0018305114689685822,0.02152989249400045,0.25427562414679616,1.1215753447119254
7.7078686465207324,0.5439061109880796,6.348464671930797,0.0071778617847907235,-0.0018305114689685822,0.02152989249400045,0.25102248402922167,1.1283162141188872
7.715046508305523,0.542075599519111,6.369994564424798,0.0071778617847907235,-0.0018305114689685822,0.02152989249400045,0.2577152008315473,1.1340608438849271
7.722224370090314,0.5402450880501424,6.391524456918798,0.0071778617847907235,-0.0018305114689685822,0.02152989249400045,0.2592323076168689,1.1351943644862441
7.739376468321207,0.5396006134135299,6.325185411459957,0.017152098230893018,-0.0006444746366124459,-0.06633904545884087,0.25836735234104014,1.1315475794105214
7.7565285665521,0.5389561387769175,6.258846366001116,0.017152098230893018,-0.0006444746366124459,-0.06633904545884087,0.26289913852298724,1.1454030785012133
7.773680664782993,0.5383116641403051,6.1925073205422745,0.017152098230893018,-0.0006444746366124459,-0.06633904545884087,0.26042328407708326,1.147185048446889
7.790832763013886,0.5376671895036926,6.126168275083433,0.017152098230893018,-0.0006444746366124459,-0.06633904545884087,0.25258443768691285,1.1552802005331588
7.807984861244779,0.5370227148670802,6.059829229624592,0.017152098230893018,-0.0006444746366124459,-0.06633904545884087,0.2525609240602842,1.1636273190961652
7.825136959475672,0.5363782402304678,5.993490184165751,0.017152098230893018,-0.0006444746366124459,-0.06633904545884087,0.2530801146213984,1.1736658046882342
7.842289057706565,0.5357337655938553,5.927151138706909,0.017152098230893018,-0.0006444746366124459,-0.06633904545884087,0.25873066886617374,1.180482719309085
7.859441155937458,0.5350892909572429,5.860812093248068,0.017152098230893018,-0.0006444746366124459,-0.06633904545884087,0.2560340823108677,1.176577806180074
7.876593254168351,0.5344448163206305,5.794473047789227,0.017152098230893018,-0.0006444746366124459,-0.06633904545884087,0.24759819210189782,1.1728455679751386
7.893745352399244,0.533800341684018,5.7281340023303855,0.017152098230893018,-0.0006444746366124459,-0.06633904545884087,0.25390028170234463,1.1732586463547467
7.910897450630137,0.5331558670474056,5.661794956871544,0.017152098230893018,-0.0006444746366124459,-0.06633904545884087,0.25367130218356077,1.1779779223038256
7.92804954886103,0.5325113924107931,5.595455911412703,0.017152098230893018,-0.0006444746366124459,-0.06633904545884087,0.25574029689846606,1.1762976793641573
7.945201647091923,0.5318669177741807,5.529116865953862,0.017152098230893018,-0.0006444746366124459,-0.06633904545884087,0.24878558213282953,1.1676865379588734
7.962353745322816,0.5312224431375683,5.46277782049502,0.017152098230893018,-0.0006444746366124459,-0.06633904545884087,0.24104699373604735,1.1663999229530064
7.979505843553709,0.5305779685009558,5.396438775036179,0.017152098230893018,-0.0006444746366124459,-0.06633904545884087,0.24075911281006576,1.1626611265592595
7.996657941784602,0.5299334938643434,5.330099729577338,0.017152098230893018,-0.0006444746366124459,-0.06633904545884087,0.2489775338971868,1.171972205608751
8.013810040015494,0.529289019227731,5.2637606841184965,0.017152098230893018,-0.0006444746366124459,-0.06633904545884087,0.26363649481833423,1.1682456882342842
8.030962138246387,0.5286445445911185,5.197421638659655,0.017152098230893018,-0.0006444746366124459,-0.06633904545884087,0.2714019525405632,1.1831070957689216
8.04811423647728,0.5280000699545061,5.131082593200814,0.017152098230893018,-0.0006444746366124459,-0.06633904545884087,0.2742942958300044,1.1805370690126122
8.065266334708173,0.5273555953178937,5.064743547741973,0.017152098230893018,-0.0006444746366124459,-0.06633904545884087,0.26590501199687716,1.1792889443648003
8.082418432939066,0.5267111206812812,4.998404502283131,0.017152098230893018,-0.0006444746366124459,-0.06633904545884087,0.26671981978384884,1.1714365187195304
8.09957053116996,0.5260666460446688,4.93206545682429,0.017152098230893018,-0.0006444746366124459,-0.06633904545884087,0.26307994945587326,1.1767266968201762
8.116722629400853,0.5254221714080564,4.865726411365449,0.017152098230893018,-0.0006444746366124459,-0.06633904545884087,0.2609664250292825,1.1720282377335072
8.133874727631746,0.5247776967714439,4.7993873659066075,0.017152098230893018,-0.0006444746366124459,-0.06633904545884087,0.2676563818201785,1.1605880482135305
8.151026825862639,0.5241332221348315,4.733048320447766,0.017152098230893018,-0.0006444746366124459,-0.06633904545884087,0.2620398616150178,1.1610038207428075
8.168178924093532,0.523488747498219,4.666709274988925,0.017152098230893018,-0.0006444746366124459,-0.06633904545884087,0.2658139460551119,1.1674744203068559
8.185331022324425,0.5228442728616066,4.600370229530084,0.017152098230893018,-0.0006444746366124459,-0.06633904545884087,0.27344146471447106,1.176489288845041
8.202483120555318,0.5221997982249942,4.534031184071242,0.017152098230893018,-0.0006444746366124459,-0.06633904545884087,0.27350998996950143,1.1745968394775277
8.21963521878621,0.5215553235883817,4.467692138612401,0.017152098230893018,-0.0006444746366124459,-0.06633904545884087,0.26600262166263866,1.1697180704451344
8.236787317017104,0.5209108489517693,4.40135309315356,0.017152098230893018,-0.0006444746366124459,-0.06633904545884087,0.2611923056068343,1.1582494531003376
8.253939415247997,0.5202663743151569,4.3350140476947185,0.017152098230893018,-0.0006444746366124459,-0.06633904545884087,0.25148420067670635,1.1407576637488703
8.27109151347889,0.5196218996785444,4.268675002235877,0.017152098230893018,-0.0006444746366124459,-0.06633904545884087,0.2439577220673786,1.1369172984440992
8.288243611709783,0.518977425041932,4.202335956777036,0.017152098230893018,-0.0006444746366124459,-0.06633904545884087,0.258944574799162,1.1232420930670926
8.305395709940676,0.5183329504053196,4.135996911318195,0.017152098230893018,-0.0006444746366124459,-0.06633904545884087,0.27746808220383523,1.121235807362088
8.322547808171569,0.5176884757687071,4.069657865859353,0.017152098230893018,-0.0006444746366124459,-0.06633904545884087,0.27484071532893056,1.1265884875346472
8.339699906402462,0.5170440011320947,4.003318820400512,0.017152098230893018,-0.0006444746366124459,-0.06633904545884087,0.2839472296130675,1.1293666822041075
8.356852004633355,0.5163995264954823,3.9369797749416713,0.017152098230893018,-0.0006444746366124459,-0.06633904545884087,0.28679277675280873,1.1490410370503312
8.374004102864248,0.5157550518588698,3.8706407294828304,0.017152098230893018,-0.0006444746366124459,-0.06633904545884087,0.2848557899969925,1.1534267853932234
8.391156201095141,0.5151105772222574,3.8043016840239896,0.017152098230893018,-0.0006444746366124459,-0.06633904545884087,0.3031263063772826,1.1457416035703607
8.408308299326034,0.514466102585645,3.7379626385651488,0.017152098230893018,-0.0006444746366124459,-0.06633904545884087,0.3031263063772826,1.1693340936350365
8.425460397556927,0.5138216279490325,3.671623593106308,0.017152098230893018,-0.0006444746366124459,-0.06633904545884087,0.3031263063772826,1.1799266324446558
8.498525664224232,0.49781062247021896,3.6176949210928897,0.07306526666730569,-0.01601100547881355,-0.053928672013418125,0.32823036317863086,1.1694999456963386
8.571590930891537,0.4817996169914054,3.5637662490794715,0.07306526666730569,-0.01601100547881355,-0.053928672013418125,0.32823036317863086,1.1688909093032358
8.644656197558842,0.4657886115125918,3.5098375770660533,0.07306526666730569,-0.01601100547881355,-0.053928672013418125,0.3221365389748108,1.1499972516248724
8.717721464226146,0.44977760603377825,3.455908905052635,0.07306526666730569,-0.01601100547881355,-0.053928672013418125,0.3221365389748108,1.1631630544413634
8.790786730893451,0.4337666005549647,3.401980233039217,0.07306526666730569,-0.01601100547881355,-0.053928672013418125,0.3400390192830565,1.1700783752509984
8.863851997560756,0.4177555950761511,3.3480515610257986,0.07306526666730569,-0.01601100547881355,-0.053928672013418125,0.34399737245521966,1.1745218229984682
8.936917264228061,0.40174458959733755,3.2941228890123804,0.07306526666730569,-0.01601100547881355,-0.053928672013418125,0.35943677366669313,1.1599360679695094
9.009982530895366,0.385733584118524,3.240194216998962,0.07306526666730569,-0.01601100547881355,-0.053928672013418125,0.35943677366669313,1.1644383177268867
9.08304779756267,0.3697225786397104,3.186265544985544,0.07306526666730569,-0.01601100547881355,-0.053928672013418125,0.35589632384064257,1.1600347158069875
9.156113064229976,0.35371157316089685,3.1323368729721257,0.07306526666730569,-0.01601100547881355,-0.053928672013418125,0.35589632384064257,1.1727067399813307
9.22917833089728,0.3377005676820833,3.0784082009587075,0.07306526666730569,-0.01601100547881355,-0.053928672013418125,0.3568499683529414,1.16935679917607
9.302243597564585,0.3216895622032697,3.0244795289452893,0.07306526666730569,-0.01601100547881355,-0.053928672013418125,0.3678704407855237,1.1655912444966576
9.37530886423189,0.30567855672445615,2.970550856931871,0.07306526666730569,-0.01601100547881355,-0.053928672013418125,0.36511418054200945,1.171548876370069
9.448374130899195,0.2896675512456426,2.916622184918453,0.07306526666730569,-0.01601100547881355,-0.053928672013418125,0.3616701137181101,1.1789455147021888
9.5214393975665,0.273656545766829,2.8626935129050346,0.07306526666730569,-0.01601100547881355,-0.053928672013418125,0.35315313345281735,1.1911714818885708
9.594504664233805,0.25764554028801545,2.8087648408916164,0.07306526666730569,-0.01601100547881355,-0.053928672013418125,0.3682946749578411,1.1796085122386413
9.66756993090111,0.2416345348092019,2.754836168878198,0.07306526666730569,-0.01601100547881355,-0.053928672013418125,0.38755290114816077,1.1701875851046266
9.740635197568414,0.22562352933038837,2.70090749686478,0.07306526666730569,-0.01601100547881355,-0.053928672013418125,0.3825758369961781,1.147236034147936
9.813700464235719,0.20961252385157483,2.6469788248513617,0.07306526666730569,-0.01601100547881355,-0.053928672013418125,0.3759466686662958,1.132272527582158
9.886765730903024,0.1936015183727613,2.5930501528379435,0.07306526666730569,-0.01601100547881355,-0.053928672013418125,0.3942119800654552,1.127694016975711
9.959830997570329,0.17759051289394776,2.5391214808245253,0.07306526666730569,-0.01601100547881355,-0.053928672013418125,0.3942119800654552,1.1155405767115845
10.032896264237634,0.16157950741513422,2.485192808811107,0.07306526666730569,-0.01601100547881355,-0.053928672013418125,0.4137878776224836,1.1215299057433714
10.105961530904938,0.14556850193632068,2.431264136797689,0.07306526666730569,-0.01601100547881355,-0.053928672013418125,0.4075684713202194,1.1086033512848146
10.179026797572243,0.12955749645750714,2.3773354647842706,0.07306526666730569,-0.01601100547881355,-0.053928672013418125,0.41090507616741623,1.1440753369628591
10.252092064239548,0.11354649097869358,2.3234067927708524,0.07306526666730569,-0.01601100547881355,-0.053928672013418125,0.43539770309627734,1.171114057350017
10.325157330906853,0.09753548549988003,2.269478120757434,0.07306526666730569,-0.01601100547881355,-0.053928672013418125,0.43539770309627734,1.1985807756537727
10.398222597574158,0.08152448002106648,2.215549448744016,0.07306526666730569,-0.01601100547881355,-0.053928672013418125,0.4279150545292584,1.2264788527494108
10.471287864241463,0.06551347454225293,2.1616207767305977,0.07306526666730569,-0.01601100547881355,-0.053928672013418125,0.4205893180848029,1.254811649512216
10.544353130908767,0.04950246906343937,2.1076921047171795,0.07306526666730569,-0.01601100547881355,-0.053928672013418125,0.4472157991821812,1.2835825268174723
10.617418397576072,0.03349146358462582,2.0537634327037613,0.07306526666730569,-0.01601100547881355,-0.053928672013418125,0.4441243330610417,1.312794845540465
10.690483664243377,0.01748045810581227,1.999834760690343,0.07306526666730569,-0.01601100547881355,-0.053928672013418125,0.45937364904994227,1.3424519665564782
10.763548930910682,0.0014694526269987199,1.9459060886769248,0.07306526666730569,-0.01601100547881355,-0.053928672013418125,0.4630590723956176,1.372557250740797
10.836614197577987,-0.01454155285181483,1.8919774166635066,0.07306526666730569,-0.01601100547881355,-0.053928672013418125,0.4674288700539012,1.4031140589687057
10.909679464245292,-0.03055255833062838,1.8380487446500884,0.07306526666730569,-0.01601100547881355,-0.053928672013418125,0.4586402066032991,1.4341257521154889
10.982744730912597,-0.04656356380944193,1.7841200726366702,0.07306526666730569,-0.01601100547881355,-0.053928672013418125,0.45500154086854705,1.4655956910564312
11.055809997579901,-0.06257456928825549,1.730191400623252,0.07306526666730569,-0.01601100547881355,-0.053928672013418125,0.49631354382278237,1.4975272366668173
11.128875264247206,-0.07858557476706904,1.6762627286098337,0.07306526666730569,-0.01601100547881355,-0.053928672013418125,0.48865163090228597,1.5299237498219316
11.201940530914511,-0.09459658024588259,1.6223340565964155,0.07306526666730569,-0.01601100547881355,-0.053928672013418125,0.4935506589319689,1.5627885913970592
11.275005797581816,-0.11060758572469614,1.5684053845829973,0.07306526666730569,-0.01601100547881355,-0.053928672013418125,0.49382869605454127,1.596125122267484
11.34807106424912,-0.12661859120350968,1.514476712569579,0.07306526666730569,-0.01601100547881355,-0.053928672013418125,0.5106899269806742,1.6299367033084913
11.421136330916426,-0.14262959668232322,1.4605480405561608,0.07306526666730569,-0.01601100547881355,-0.053928672013418125,0.5175716526088447,1.6642266953953653
11.49420159758373,-0.15864060216113676,1.4066193685427426,0.07306526666730569,-0.01601100547881355,-0.053928672013418125,0.5238212156541628,1.6989984594033904
11.567266864251035,-0.1746516076399503,1.3526906965293244,0.07306526666730569,-0.01601100547881355,-0.053928672013418125,0.5214759757605097,1.734255356207852
11.64033213091834,-0.19066261311876384,1.2987620245159062,0.07306526666730569,-0.01601100547881355,-0.053928672013418125,0.5335988762721279,1.770000746684034
11.713397397585645,-0.20667361859757738,1.244833352502488,0.07306526666730569,-0.01601100547881355,-0.053928672013418125,0.5479893489769385,1.806237991707221
11.78646266425295,-0.22268462407639092,1.1909046804890697,0.07306526666730569,-0.01601100547881355,-0.053928672013418125,0.5860049068682092,1.8429704521526977
11.859527930920255,-0.23869562955520446,1.1369760084756515,0.07306526666730569,-0.01601100547881355,-0.053928672013418125,0.5860049068682092,1.8802014888957492
11.93259319758756,-0.254706635034018,1.0830473364622333,0.07306526666730569,-0.01601100547881355,-0.053928672013418125,0.5860049068682092,1.9179344628116597
12.005658464254864,-0.2707176405128316,1.029118664448815,0.07306526666730569,-0.01601100547881355,-0.053928672013418125,0.5860049068682092,1.9561727347757139
12.003507267511848,-0.2698551329761488,1.0170920346860952,-0.0021511967430157654,0.0008625075366827586,-0.012026629762719907,0.5824765838598569,1.9949196656631958
12.001356070768832,-0.26899262543946606,1.0050654049233754,-0.0021511967430157654,0.0008625075366827586,-0.012026629762719907,0.5754954284575479,2.0341786163493913
11.976411031434587,-0.2827381276154872,1.0345853696832614,-0.02494503933424535,-0.013745502176021178,0.029519964759886094,0.5922676671242015,2.0739529477095835
11.951465992100342,-0.2964836297915084,1.0641053344431475,-0.02494503933424535,-0.013745502176021178,0.029519964759886094,0.6003782867693404,2.114246020619058
11.926520952766097,-0.31022913196752955,1.0936252992030335,-0.02494503933424535,-0.013745502176021178,0.029519964759886094,0.602032425468628,2.1550611959530994
11.901575913431852,-0.3239746341435507,1.1231452639629196,-0.02494503933424535,-0.013745502176021178,0.029519964759886094,0.602032425468628,2.196401834586992
11.876630874097607,-0.3377201363195719,1.1526652287228056,-0.02494503933424535,-0.013745502176021178,0.029519964759886094,0.6111800021747213,2.2382712973960204
11.851685834763362,-0.35146563849559304,1.1821851934826917,-0.02494503933424535,-0.013745502176021178,0.029519964759886094,0.6111800021747213,2.280672945255469
11.826740795429117,-0.3652111406716142,1.2117051582425777,-0.02494503933424535,-0.013745502176021178,0.029519964759886094,0.6111800021747213,2.323610139040623
11.801795756094872,-0.37895664284763536,1.2412251230024638,-0.02494503933424535,-0.013745502176021178,0.029519964759886094,0.6031994331292675,2.367086239626767
11.776850716760627,-0.3927021450236565,1.2707450877623498,-0.02494503933424535,-0.013745502176021178,0.029519964759886094,0.6031994331292675,2.4111046078891847
11.751905677426382,-0.4064476471996777,1.300265052522236,-0.02494503933424535,-0.013745502176021178,0.029519964759886094,0.6031994331292675,2.455668604703161
11.726960638092137,-0.42019314937569885,1.329785017282122,-0.02494503933424535,-0.013745502176021178,0.029519964759886094,0.6031994331292675,2.5007815909439817
11.702015598757892,-0.43393865155172,1.359304982042008,-0.02494503933424535,-0.013745502176021178,0.029519964759886094,0.6031994331292675,2.54644692748693
11.677070559423647,-0.4476841537277412,1.388824946801894,-0.02494503933424535,-0.013745502176021178,0.029519964759886094,0.6031994331292675,2.592667975207291
11.652125520089402,-0.46142965590376234,1.41834491156178,-0.02494503933424535,-0.013745502176021178,0.029519964759886094,0.6031994331292675,2.603051851052122
11.627180480755158,-0.4751751580797835,1.4478648763216662,-0.02494503933424535,-0.013745502176021178,0.029519964759886094,0.6031994331292675,2.6134635687445718
11.602235441420913,-0.48892066025580466,1.4773848410815522,-0.02494503933424535,-0.013745502176021178,0.029519964759886094,0.6031994331292675,2.6134635687445718
11.577290402086668,-0.5026661624318258,1.5069048058414383,-0.02494503933424535,-0.013745502176021178,0.029519964759886094,0.6031994331292675,2.6134635687445718
11.552345362752423,-0.516411664607847,1.5364247706013243,-0.02494503933424535,-0.013745502176021178,0.029519964759886094,0.6031994331292675,2.6134635687445718
11.527400323418178,-0.5301571667838683,1.5659447353612104,-0.02494503933424535,-0.013745502176021178,0.029519964759886094,0.6014783817392544,2.6134635687445718
11.502455284083933,-0.5439026689598895,1.5954647001210964,-0.02494503933424535,-0.013745502176021178,0.029519964759886094,0.5974642116574801,2.6134635687445718
11.477510244749688,-0.5576481711359107,1.6249846648809825,-0.02494503933424535,-0.013745502176021178,0.029519964759886094,0.6003997283725852,2.6134635687445718
11.452565205415443,-0.5713936733119319,1.6545046296408685,-0.02494503933424535,-0.013745502176021178,0.029519964759886094,0.6145993122219284,2.6134635687445718
11.427620166081198,-0.5851391754879531,1.6840245944007546,-0.02494503933424535,-0.013745502176021178,0.029519964759886094,0.6208309012759805,2.6134635687445718
11.402675126746953,-0.5988846776639744,1.7135445591606406,-0.02494503933424535,-0.013745502176021178,0.029519964759886094,0.6251800789708774,2.6134635687445718
11.377730087412708,-0.6126301798399956,1.7430645239205267,-0.02494503933424535,-0.013745502176021178,0.029519964759886094,0.6209275213301042,2.6134635687445718
11.352785048078463,-0.6263756820160168,1.7725844886804127,-0.02494503933424535,-0.013745502176021178,0.029519964759886094,0.6174144007364243,2.6098779788831927
11.327840008744218,-0.640121184192038,1.8021044534402988,-0.02494503933424535,-0.013745502176021178,0.029519964759886094,0.620019025117059,2.6104396441873168
11.302894969409973,-0.6538666863680592,1.8316244182001848,-0.02494503933424535,-0.013745502176021178,0.029519964759886094,0.6138923881427544,2.6388829971188157
11.277949930075728,-0.6676121885440804,1.861144382960071,-0.02494503933424535,-0.013745502176021178,0.029519964759886094,0.6197988129528293,2.6332610113225186
11.253004890741483,-0.6813576907201017,1.890664347719957,-0.02494503933424535,-0.013745502176021178,0.029519964759886094,0.6233640489780214,2.6256350504390253
11.228059851407238,-0.6951031928961229,1.920184312479843,-0.02494503933424535,-0.013745502176021178,0.029519964759886094,0.6249143981540152,2.6271814304601873
11.203114812072993,-0.7088486950721441,1.949704277239729,-0.02494503933424535,-0.013745502176021178,0.029519964759886094,0.6179562565051653,2.634948867275498
11.178169772738748,-0.7225941972481653,1.979224241999615,-0.02494503933424535,-0.013745502176021178,0.029519964759886094,0.6172624355889019,2.625448687437788
11.153224733404503,-0.7363396994241865,2.008744206759501,-0.02494503933424535,-0.013745502176021178,0.029519964759886094,0.6154000159590173,2.6243224296476497
11.128279694070258,-0.7500852016002078,2.0382641715193874,-0.02494503933424535,-0.013745502176021178,0.029519964759886094,0.6092388904841767,2.6177781267731084
11.103334654736013,-0.763830703776229,2.0677841362792737,-0.02494503933424535,-0.013745502176021178,0.029519964759886094,0.6117409420397585,2.6090225070269213
11.078389615401768,-0.7775762059522502,2.09730410103916,-0.02494503933424535,-0.013745502176021178,0.029519964759886094,0.6008702132279183,2.613173500006567
11.053444576067523,-0.7913217081282714,2.1268240657990463,-0.02494503933424535,-0.013745502176021178,0.029519964759886094,0.6019521316746289,2.6193292502256473
11.028499536733278,-0.8050672103042926,2.1563440305589325,-0.02494503933424535,-0.013745502176021178,0.029519964759886094,0.6020624778535771,2.6171751058401544
11.003554497399033,-0.8188127124803138,2.185863995318819,-0.02494503933424535,-0.013745502176021178,0.029519964759886094,0.6069673776943705,2.612224271328047
10.978609458064788,-0.8325582146563351,2.215383960078705,-0.02494503933424535,-0.013745502176021178,0.029519964759886094,0.6098335385363994,2.6072217594560243
10.953664418730543,-0.8463037168323563,2.2449039248385914,-0.02494503933424535,-0.013745502176021178,0.029519964759886094,0.607182582497171,2.6134865063515407
10.972062332674597,-0.8503623969327827,2.232028201451794,0.018397913944053202,-0.0040586801004263776,-0.012875723386797178,0.6075672101540036,2.6286840648821213
10.99046024661865,-0.8544210770332091,2.2191524780649967,0.018397913944053202,-0.0040586801004263776,-0.012875723386797178,0.6041595923717172,2.6240266831519667
11.008858160562703,-0.8584797571336356,2.2062767546781994,0.018397913944053202,-0.0040586801004263776,-0.012875723386797178,0.6028674155871745,2.6243673200711424
11.027256074506756,-0.862538437234062,2.193401031291402,0.018397913944053202,-0.0040586801004263776,-0.012875723386797178,0.597662591890972,2.633378518553551
11.045653988450809,-0.8665971173344884,2.1805253079046047,0.018397913944053202,-0.0040586801004263776,-0.012875723386797178,0.5974382664266016,2.643877985000581
11.064051902394862,-0.8706557974349148,2.1676495845178074,0.018397913944053202,-0.0040586801004263776,-0.012875723386797178,0.6010222041544725,2.6478532509599035
11.082449816338915,-0.8747144775353413,2.15477386113101,0.018397913944053202,-0.0040586801004263776,-0.012875723386797178,0.6062790166944638,2.6619738313744277
11.100847730282968,-0.8787731576357677,2.141898137744213,0.018397913944053202,-0.0040586801004263776,-0.012875723386797178,0.6037736467151729,2.667943983341197
11.119245644227021,-0.8828318377361941,2.1290224143574155,0.018397913944053202,-0.0040586801004263776,-0.012875723386797178,0.6057073935708964,2.660781753872087
11.137643558171074,-0.8868905178366205,2.116146690970618,0.018397913944053202,-0.0040586801004263776,-0.012875723386797178,0.5955288428700096,2.6561447099507247
11.156041472115128,-0.890949197937047,2.103270967583821,0.018397913944053202,-0.0040586801004263776,-0.012875723386797178,0.5832750508743216,2.669261498854398
11.17443938605918,-0.8950078780374734,2.0903952441970235,0.018397913944053202,-0.0040586801004263776,-0.012875723386797178,0.5826300475073782,2.657106255540353
11.192837300003234,-0.8990665581378998,2.077519520810226,0.018397913944053202,-0.0040586801004263776,-0.012875723386797178,0.59073950358029,2.6478707971568043
11.211235213947287,-0.9031252382383262,2.064643797423429,0.018397913944053202,-0.0040586801004263776,-0.012875723386797178,0.5842760680443595,2.6410773176128024
11.22963312789134,-0.9071839183387527,2.0517680740366315,0.018397913944053202,-0.0040586801004263776,-0.012875723386797178,0.5768102849008139,2.6423580110283904
11.248031041835393,-0.9112425984391791,2.038892350649834,0.018397913944053202,-0.0040586801004263776,-0.012875723386797178,0.5764020332213939,2.6422864207896426
11.266428955779446,-0.9153012785396055,2.026016627263037,0.018397913944053202,-0.0040586801004263776,-0.012875723386797178,0.5708085383685764,2.6620890006330584
11.2848268697235,-0.919359958640032,2.0131409038762396,0.018397913944053202,-0.0040586801004263776,-0.012875723386797178,0.5687370523906625,2.651578443204218
11.303224783667552,-0.9234186387404584,2.0002651804894422,0.018397913944053202,-0.0040586801004263776,-0.012875723386797178,0.570274627630836,2.65001187459481
11.321622697611605,-0.9274773188408848,1.9873894571026451,0.018397913944053202,-0.0040586801004263776,-0.012875723386797178,0.5627971972126563,2.670603623959412
11.340020611555659,-0.9315359989413112,1.974513733715848,0.018397913944053202,-0.0040586801004263776,-0.012875723386797178,0.5705926111066311,2.6757844579106065
11.358418525499712,-0.9355946790417377,1.961638010329051,0.018397913944053202,-0.0040586801004263776,-0.012875723386797178,0.5729273573410832,2.6744538535182065
11.376816439443765,-0.9396533591421641,1.9487622869422538,0.018397913944053202,-0.0040586801004263776,-0.012875723386797178,0.5737980473797175,2.6775009609755793
11.395214353387818,-0.9437120392425905,1.9358865635554567,0.018397913944053202,-0.0040586801004263776,-0.012875723386797178,0.5765319317599822,2.6798387590955866
11.413612267331871,-0.9477707193430169,1.9230108401686596,0.018397913944053202,-0.0040586801004263776,-0.012875723386797178,0.5760257880294869,2.681004084956291
11.432010181275924,-0.9518293994434434,1.9101351167818625,0.018397913944053202,-0.0040586801004263776,-0.012875723386797178,0.5767479104364419,2.683351641482201
11.450408095219977,-0.9558880795438698,1.8972593933950654,0.018397913944053202,-0.0040586801004263776,-0.012875723386797178,0.5721118376354511,2.672692630127855
11.46880600916403,-0.9599467596442962,1.8843836700082683,0.018397913944053202,-0.0040586801004263776,-0.012875723386797178,0.5729991040461161,2.6802127374814315
11.487203923108083,-0.9640054397447226,1.8715079466214712,0.018397913944053202,-0.0040586801004263776,-0.012875723386797178,0.5706456609220789,2.6748420413866554
11.505601837052136,-0.9680641198451491,1.8586322232346741,0.018397913944053202,-0.0040586801004263776,-0.012875723386797178,0.5719716951365793,2.663498520406714
11.52399975099619,-0.9721227999455755,1.845756499847877,0.018397913944053202,-0.0040586801004263776,-0.012875723386797178,0.5680683195269113,2.636338976842937
11.542397664940243,-0.9761814800460019,1.83288077646108,0.018397913944053202,-0.0040586801004263776,-0.012875723386797178,0.5681544163205513,2.6482922854755953
11.560795578884296,-0.9802401601464283,1.8200050530742828,0.018397913944053202,-0.0040586801004263776,-0.012875723386797178,0.568810973429838,2.6371266260030746
11.579193492828349,-0.9842988402468548,1.8071293296874857,0.018397913944053202,-0.0040586801004263776,-0.012875723386797178,0.5632176631544539,2.6428782404403557
11.597591406772402,-0.9883575203472812,1.7942536063006886,0.018397913944053202,-0.0040586801004263776,-0.012875723386797178,0.5569003337209671,2.6300625935039594
11.615989320716455,-0.9924162004477076,1.7813778829138915,0.018397913944053202,-0.0040586801004263776,-0.012875723386797178,0.5576985952587498,2.632860805815697
11.634387234660508,-0.996474880548134,1.7685021595270944,0.018397913944053202,-0.0040586801004263776,-0.012875723386797178,0.5481934024678273,2.6534430204193056
11.652785148604561,-1.0005335606485604,1.7556264361402973,0.018397913944053202,-0.0040586801004263776,-0.012875723386797178,0.5491189056959785,2.660113725452627
11.671183062548614,-1.0045922407489867,1.7427507127535002,0.018397913944053202,-0.0040586801004263776,-0.012875723386797178,0.5412149598307038,2.6568789008916003
11.689580976492667,-1.008650920849413,1.7298749893667031,0.018397913944053202,-0.0040586801004263776,-0.012875723386797178,0.5411460565749293,2.6610660616342483
11.70797889043672,-1.0127096009498393,1.716999265979906,0.018397913944053202,-0.0040586801004263776,-0.012875723386797178,0.5351935389962055,2.646944560367493
11.726376804380774,-1.0167682810502656,1.704123542593109,0.018397913944053202,-0.0040586801004263776,-0.012875723386797178,0.5328835317128162,2.6318419169138316
11.744774718324827,-1.020826961150692,1.6912478192063118,0.018397913944053202,-0.0040586801004263776,-0.012875723386797178,0.5323233800700122,2.6379688060136433
11.76317263226888,-1.0248856412511183,1.6783720958195147,0.018397913944053202,-0.0040586801004263776,-0.012875723386797178,0.5374903107476601,2.6527683656790493
11.781570546212933,-1.0289443213515446,1.6654963724327176,0.018397913944053202,-0.0040586801004263776,-0.012875723386797178,0.537378227186512,2.6602250347368135
11.799968460156986,-1.0330030014519709,1.6526206490459205,0.018397913944053202,-0.0040586801004263776,-0.012875723386797178,0.5308000890383323,2.656404583840878
11.81836637410104,-1.0370616815523972,1.6397449256591234,0.018397913944053202,-0.0040586801004263776,-0.012875723386797178,0.533305619496349,2.6608296573608285
11.836764288045092,-1.0411203616528235,1.6268692022723263,0.018397913944053202,-0.0040586801004263776,-0.012875723386797178,0.5341144829166855,2.658816604719502
11.855162201989145,-1.0451790417532498,1.6139934788855292,0.018397913944053202,-0.0040586801004263776,-0.012875723386797178,0.5295981751742277,2.663920227171472
11.873560115933198,-1.0492377218536761,1.6011177554987321,0.018397913944053202,-0.0040586801004263776,-0.012875723386797178,0.5318370785984787,2.678037812296853
11.891958029877252,-1.0532964019541025,1.588242032111935,0.018397913944053202,-0.0040586801004263776,-0.012875723386797178,0.5382782285210799,2.68308162833495
11.910355943821305,-1.0573550820545288,1.575366308725138,0.018397913944053202,-0.0040586801004263776,-0.012875723386797178,0.5358942079019202,2.6764229751926143
11.928753857765358,-1.061413762154955,1.5624905853383408,0.018397913944053202,-0.0040586801004263776,-0.012875723386797178,0.5358942079019202,2.6956675875121276
11.947151771709411,-1.0654724422553814,1.5496148619515437,0.018397913944053202,-0.0040586801004263776,-0.012875723386797178,0.5358942079019202,2.6902763597449098
11.965549685653464,-1.0695311223558077,1.5367391385647466,0.018397913944053202,-0.0040586801004263776,-0.012875723386797178,0.5299085171231233,2.7046705507134705
11.983947599597517,-1.073589802456234,1.5238634151779495,0.018397913944053202,-0.0040586801004263776,-0.012875723386797178,0.5369545700761313,2.715077950679405
12.00234551354157,-1.0776484825566603,1.5109876917911524,0.018397913944053202,-0.0040586801004263776,-0.012875723386797178,0.5369545700761313,2.733065037013777
12.020743427485623,-1.0817071626570867,1.4981119684043553,0.018397913944053202,-0.0040586801004263776,-0.012875723386797178,0.5696820382769032,2.7328347969443656
12.039141341429676,-1.085765842757513,1.4852362450175582,0.018397913944053202,-0.0040586801004263776,-0.012875723386797178,0.5696820382769032,2.722233026995157
12.05753925537373,-1.0898245228579393,1.4723605216307611,0.018397913944053202,-0.0040586801004263776,-0.012875723386797178,0.5696820382769032,2.7200606835578127
12.075937169317783,-1.0938832029583656,1.459484798243964,0.018397913944053202,-0.0040586801004263776,-0.012875723386797178,0.5696820382769032,2.728945838546246
12.094335083261836,-1.097941883058792,1.446609074857167,0.018397913944053202,-0.0040586801004263776,-0.012875723386797178,0.5696820382769032,2.752009519978241
12.112732997205889,-1.1020005631592182,1.4337333514703698,0.018397913944053202,-0.0040586801004263776,-0.012875723386797178,0.5696820382769032,2.7531649082567915
12.131130911149942,-1.1060592432596446,1.4208576280835727,0.018397913944053202,-0.0040586801004263776,-0.012875723386797178,0.5696820382769032,2.7447605740130587
12.149528825093995,-1.1101179233600709,1.4079819046967756,0.018397913944053202,-0.0040586801004263776,-0.012875723386797178,0.5696820382769032,2.753754018722463
12.167926739038048,-1.1141766034604972,1.3951061813099785,0.018397913944053202,-0.0040586801004263776,-0.012875723386797178,0.5696820382769032,2.7677135069920635
12.186324652982101,-1.1182352835609235,1.3822304579231814,0.018397913944053202,-0.0040586801004263776,-0.012875723386797178,0.5696820382769032,2.7545152367612755
12.204722566926154,-1.1222939636613498,1.3693547345363843,0.018397913944053202,-0.0040586801004263776,-0.012875723386797178,0.5696820382769032,2.7677689220299935
12.223120480870207,-1.1263526437617761,1.3564790111495872,0.018397913944053202,-0.0040586801004263776,-0.012875723386797178,0.5648943839413794,2.7728431966061873
12.24151839481426,-1.1304113238622024,1.3436032877627901,0.018397913944053202,-0.0040586801004263776,-0.012875723386797178,0.5605002806292968,2.7694875868790705
12.259916308758314,-1.1344700039626288,1.330727564375993,0.018397913944053202,-0.0040586801004263776,-0.012875723386797178,0.5669938193080911,2.7752832216370513
12.278314222702367,-1.138528684063055,1.317851840989196,0.018397913944053202,-0.0040586801004263776,-0.012875723386797178,0.5615461828505451,2.7721248390616653
12.29671213664642,-1.1425873641634814,1.3049761176023988,0.018397913944053202,-0.0040586801004263776,-0.012875723386797178,0.5551594735387967,2.7651617106215505
12.315110050590473,-1.1466460442639077,1.2921003942156017,0.018397913944053202,-0.0040586801004263776,-0.012875723386797178,0.5738988639412461,2.7555914242248947
12.333507964534526,-1.150704724364334,1.2792246708288046,0.018397913944053202,-0.0040586801004263776,-0.012875723386797178,0.5738988639412461,2.7611829933285508
12.35190587847858,-1.1547634044647603,1.2663489474420075,0.018397913944053202,-0.0040586801004263776,-0.012875723386797178,0.5738988639412461,2.7598144866428402
12.431966798344638,-1.1547264572942895,1.3236735845258778,0.08006091986605826,3.694717047094368e-05,0.05732463708387017,0.5690909747422863,2.7675362426637062
12.512027718210696,-1.1546895101238186,1.380998221609748,0.08006091986605826,3.694717047094368e-05,0.05732463708387017,0.5672009067293198,2.7641447651297173
12.592088638076754,-1.1546525629533477,1.4383228586936183,0.08006091986605826,3.694717047094368e-05,0.05732463708387017,0.5672009067293198,2.75998437726988
12.672149557942813,-1.1546156157828769,1.4956474957774886,0.08006091986605826,3.694717047094368e-05,0.05732463708387017,0.5623411378534037,2.7539511912624666
12.752210477808871,-1.154578668612406,1.5529721328613588,0.08006091986605826,3.694717047094368e-05,0.05732463708387017,0.5802381765081094,2.760033281781566
12.83227139767493,-1.1545417214419351,1.610296769945229,0.08006091986605826,3.694717047094368e-05,0.05732463708387017,0.5802381765081094,2.767035555052374
12.912332317540988,-1.1545047742714643,1.6676214070290993,0.08006091986605826,3.694717047094368e-05,0.05732463708387017,0.5802381765081094,2.7805962123342307
12.992393237407047,-1.1544678271009934,1.7249460441129696,0.08006091986605826,3.694717047094368e-05,0.05732463708387017,0.5802381765081094,2.7724611021771954
13.072454157273105,-1.1544308799305225,1.7822706811968398,0.08006091986605826,3.694717047094368e-05,0.05732463708387017,0.5802381765081094,2.782590651440442
13.152515077139164,-1.1543939327600516,1.83959531828071,0.08006091986605826,3.694717047094368e-05,0.05732463708387017,0.5802381765081094,2.8110434803200186
13.232575997005222,-1.1543569855895808,1.8969199553645804,0.08006091986605826,3.694717047094368e-05,0.05732463708387017,0.5802381765081094,2.806582927800749
13.31263691687128,-1.15432003841911,1.9542445924484506,0.08006091986605826,3.694717047094368e-05,0.05732463708387017,0.5802381765081094,2.813249921056349
13.392697836737339,-1.154283091248639,2.011569229532321,0.08006091986605826,3.694717047094368e-05,0.05732463708387017,0.5802381765081094,2.8064568237067435
13.472758756603398,-1.1542461440781682,2.068893866616191,0.08006091986605826,3.694717047094368e-05,0.05732463708387017,0.5802381765081094,2.8205910320048986
13.552819676469456,-1.1542091969076973,2.126218503700061,0.08006091986605826,3.694717047094368e-05,0.05732463708387017,0.5802381765081094,2.811712546588736
13.632880596335514,-1.1541722497372264,2.183543140783931,0.08006091986605826,3.694717047094368e-05,0.05732463708387017,0.5706575948826363,2.809504988465895
13.712941516201573,-1.1541353025667556,2.240867777867801,0.08006091986605826,3.694717047094368e-05,0.05732463708387017,0.5677558721273697,2.82541046380041
13.793002436067631,-1.1540983553962847,2.298192414951671,0.08006091986605826,3.694717047094368e-05,0.05732463708387017,0.563638109918619,2.8145637273968367
13.87306335593369,-1.1540614082258138,2.355517052035541,0.08006091986605826,3.694717047094368e-05,0.05732463708387017,0.5673876901296073,2.8301896233483097
13.953124275799748,-1.154024461055343,2.412841689119411,0.08006091986605826,3.694717047094368e-05,0.05732463708387017,0.5660435415414612,2.8186799024186624
14.033185195665807,-1.153987513884872,2.470166326203281,0.08006091986605826,3.694717047094368e-05,0.05732463708387017,0.5671755476000738,2.8293103475032817
14.113246115531865,-1.1539505667144012,2.527490963287151,0.08006091986605826,3.694717047094368e-05,0.05732463708387017,0.5604081407904397,2.8312073647030553
14.193307035397924,-1.1539136195439303,2.584815600371021,0.08006091986605826,3.694717047094368e-05,0.05732463708387017,0.5616812724321769,2.8250790295313077
14.273367955263982,-1.1538766723734595,2.6421402374548912,0.08006091986605826,3.694717047094368e-05,0.05732463708387017,0.5594504459677075,2.824391445373956
14.35342887513004,-1.1538397252029886,2.6994648745387613,0.08006091986605826,3.694717047094368e-05,0.05732463708387017,0.5588650456966288,2.8267529889959224
14.433489794996099,-1.1538027780325177,2.7567895116226313,0.08006091986605826,3.694717047094368e-05,0.05732463708387017,0.5529546173509824,2.8272209337041563
14.513550714862157,-1.1537658308620469,2.8141141487065013,0.08006091986605826,3.694717047094368e-05,0.05732463708387017,0.5524634731580365,2.8208466600443476
14.593611634728216,-1.153728883691576,2.8714387857903714,0.08006091986605826,3.694717047094368e-05,0.05732463708387017,0.5476190686191741,2.8054068258574687
14.673672554594274,-1.1536919365211051,2.9287634228742414,0.08006091986605826,3.694717047094368e-05,0.05732463708387017,0.5451285993605443,2.7928375258067173
14.753733474460333,-1.1536549893506343,2.9860880599581114,0.08006091986605826,3.694717047094368e-05,0.05732463708387017,0.5484972450253731,2.7918891427996715
14.833794394326391,-1.1536180421801634,3.0434126970419815,0.08006091986605826,3.694717047094368e-05,0.05732463708387017,0.5522565629629218,2.7845347132371403
14.91385531419245,-1.1535810950096925,3.1007373341258515,0.08006091986605826,3.694717047094368e-05,0.05732463708387017,0.5530060450996162,2.7755564991779162
14.993916234058508,-1.1535441478392217,3.1580619712097215,0.08006091986605826,3.694717047094368e-05,0.05732463708387017,0.5508303156795565,2.7724467829978026
15.073977153924567,-1.1535072006687508,3.2153866082935916,0.08006091986605826,3.694717047094368e-05,0.05732463708387017,0.5497381436778869,2.7655049042779005
15.154038073790625,-1.15347025349828,3.2727112453774616,0.08006091986605826,3.694717047094368e-05,0.05732463708387017,0.550622571531646,2.7315066805577644
15.234098993656684,-1.153433306327809,3.3300358824613316,0.08006091986605826,3.694717047094368e-05,0.05732463708387017,0.5554487199371889,2.735808546766881
15.314159913522742,-1.1533963591573382,3.3873605195452017,0.08006091986605826,3.694717047094368e-05,0.05732463708387017,0.5525624816887609,2.7261078612515464
15.3942208333888,-1.1533594119868673,3.4446851566290717,0.08006091986605826,3.694717047094368e-05,0.05732463708387017,0.5500448199886833,2.709993456459559
15.474281753254859,-1.1533224648163964,3.5020097937129417,0.08006091986605826,3.694717047094368e-05,0.05732463708387017,0.5601802064633863,2.7055022260226034
15.554342673120917,-1.1532855176459256,3.5593344307968118,0.08006091986605826,3.694717047094368e-05,0.05732463708387017,0.5611581558298246,2.6956270585597526
15.634403592986976,-1.1532485704754547,3.616659067880682,0.08006091986605826,3.694717047094368e-05,0.05732463708387017,0.5570637012751867,2.6962666765664816
15.714464512853034,-1.1532116233049838,3.673983704964552,0.08006091986605826,3.694717047094368e-05,0.05732463708387017,0.5498456191112362,2.6964827398548836
15.794525432719093,-1.153174676134513,3.731308342048422,0.08006091986605826,3.694717047094368e-05,0.05732463708387017,0.5514459371173975,2.678046999506967
15.874586352585151,-1.153137728964042,3.788632979132292,0.08006091986605826,3.694717047094368e-05,0.05732463708387017,0.5462446408053849,2.6788572697521777
15.95464727245121,-1.1531007817935712,3.845957616216162,0.08006091986605826,3.694717047094368e-05,0.05732463708387017,0.547698786077698,2.7014831378749093
16.034708192317268,-1.1530638346231004,3.903282253300032,0.08006091986605826,3.694717047094368e-05,0.05732463708387017,0.5484511323987178,2.7037184473076454
16.114769112183325,-1.1530268874526295,3.960606890383902,0.08006091986605826,3.694717047094368e-05,0.05732463708387017,0.547804448062301,2.7124298677312493
16.19483003204938,-1.1529899402821586,4.0179315274677725,0.08006091986605826,3.694717047094368e-05,0.05732463708387017,0.5521527077445789,2.709001130434603
16.274890951915438,-1.1529529931116878,4.075256164551643,0.08006091986605826,3.694717047094368e-05,0.05732463708387017,0.5461458412662313,2.705736087675184
16.354951871781495,-1.1529160459412169,4.1325808016355134,0.08006091986605826,3.694717047094368e-05,0.05732463708387017,0.5396329170312044,2.7089453689155234
16.43501279164755,-1.152879098770746,4.189905438719384,0.08006091986605826,3.694717047094368e-05,0.05732463708387017,0.5406049064866144,2.7256556421873537
16.515073711513608,-1.1528421516002751,4.247230075803254,0.08006091986605826,3.694717047094368e-05,0.05732463708387017,0.5485963973873277,2.7479853185305414
16.595134631379665,-1.1528052044298043,4.304554712887125,0.08006091986605826,3.694717047094368e-05,0.05732463708387017,0.5494550876372566,2.762277456024498
16.67519555124572,-1.1527682572593334,4.361879349970995,0.08006091986605826,3.694717047094368e-05,0.05732463708387017,0.5410292016028608,2.7480402746886137
16.755256471111778,-1.1527313100888625,4.419203987054866,0.08006091986605826,3.694717047094368e-05,0.05732463708387017,0.5451166305329544,2.7515810408081407
16.835317390977835,-1.1526943629183917,4.476528624138736,0.08006091986605826,3.694717047094368e-05,0.05732463708387017,0.5513084973496325,2.746488872593608
16.91537831084389,-1.1526574157479208,4.533853261222607,0.08006091986605826,3.694717047094368e-05,0.05732463708387017,0.5531154051076438,2.7557844770198012
16.995439230709948,-1.15262046857745,4.591177898306477,0.08006091986605826,3.694717047094368e-05,0.05732463708387017,0.5549450838251679,2.76483272798209
17.075500150576005,-1.152583521406979,4.648502535390348,0.08006091986605826,3.694717047094368e-05,0.05732463708387017,0.5562139771702304,2.7685962918030804
17.15556107044206,-1.1525465742365082,4.705827172474218,0.08006091986605826,3.694717047094368e-05,0.05732463708387017,0.5530391464351104,2.7791008432420194
17.23562199030812,-1.1525096270660373,4.763151809558089,0.08006091986605826,3.694717047094368e-05,0.05732463708387017,0.5574215418135153,2.7735110349062166
17.315682910174175,-1.1524726798955665,4.820476446641959,0.08006091986605826,3.694717047094368e-05,0.05732463708387017,0.5520013886118499,2.773847533427331
17.39574383004023,-1.1524357327250956,4.87780108372583,0.08006091986605826,3.694717047094368e-05,0.05732463708387017,0.5508969672364348,2.771346546644237
17.47580474990629,-1.1523987855546247,4.9351257208097,0.08006091986605826,3.694717047094368e-05,0.05732463708387017,0.5533297091556024,2.7610931686692006
17.555865669772345,-1.1523618383841538,4.992450357893571,0.08006091986605826,3.694717047094368e-05,0.05732463708387017,0.5476115789111058,2.765003886814874
17.6359265896384,-1.152324891213683,5.049774994977441,0.08006091986605826,3.694717047094368e-05,0.05732463708387017,0.547087215272729,2.773602422824915
17.71598750950446,-1.152287944043212,5.107099632061312,0.08006091986605826,3.694717047094368e-05,0.05732463708387017,0.5379545793572745,2.7705181552284697
17.796048429370515,-1.1522509968727412,5.164424269145182,0.08006091986605826,3.694717047094368e-05,0.05732463708387017,0.538349161321965,2.769154147817631
17.87610934923657,-1.1522140497022704,5.2217489062290525,0.08006091986605826,3.694717047094368e-05,0.05732463708387017,0.5412967150472522,2.7808924205349115
17.95617026910263,-1.1521771025317995,5.279073543312923,0.08006091986605826,3.694717047094368e-05,0.05732463708387017,0.5406225196251643,2.7671064431654626
18.036231188968685,-1.1521401553613286,5.3363981803967935,0.08006091986605826,3.694717047094368e-05,0.05732463708387017,0.5337414009006308,2.7909310194685912
18.11629210883474,-1.1521032081908578,5.393722817480664,0.08006091986605826,3.694717047094368e-05,0.05732463708387017,0.5275233709628012,2.7865902302281302
18.1963530287008,-1.152066261020387,5.451047454564534,0.08006091986605826,3.694717047094368e-05,0.05732463708387017,0.5245887803608247,2.7722435437945174
18.276413948566855,-1.152029313849916,5.508372091648405,0.08006091986605826,3.694717047094368e-05,0.05732463708387017,0.5261682485024737,2.763699572712814
18.35647486843291,-1.1519923666794452,5.565696728732275,0.08006091986605826,3.694717047094368e-05,0.05732463708387017,0.5286028434511375,2.747637706412492
18.43653578829897,-1.1519554195089743,5.623021365816146,0.08006091986605826,3.694717047094368e-05,0.05732463708387017,0.5264657420554818,2.7517722631868256
18.516596708165025,-1.1519184723385034,5.680346002900016,0.08006091986605826,3.694717047094368e-05,0.05732463708387017,0.5272185573620743,2.758537545125953
18.596657628031082,-1.1518815251680325,5.737670639983887,0.08006091986605826,3.694717047094368e-05,0.05732463708387017,0.5248967627420976,2.7734130695662866
18.67671854789714,-1.1518445779975617,5.794995277067757,0.08006091986605826,3.694717047094368e-05,0.05732463708387017,0.5234926000309426,2.783096928327318
18.756779467763195,-1.1518076308270908,5.852319914151628,0.08006091986605826,3.694717047094368e-05,0.05732463708387017,0.5304484081498111,2.8021995598518132
18.836840387629252,-1.15177068365662,5.909644551235498,0.08006091986605826,3.694717047094368e-05,0.05732463708387017,0.5262780109349428,2.80337641975684
18.91690130749531,-1.151733736486149,5.966969188319369,0.08006091986605826,3.694717047094368e-05,0.05732463708387017,0.5285926005706042,2.798995882339921
18.996962227361365,-1.1516967893156782,6.024293825403239,0.08006091986605826,3.694717047094368e-05,0.05732463708387017,0.529210318253085,2.7973374461546494
19.077023147227422,-1.1516598421452073,6.08161846248711,0.08006091986605826,3.694717047094368e-05,0.05732463708387017,0.5229543083692882,2.806161422002833
19.15708406709348,-1.1516228949747365,6.13894309957098,0.08006091986605826,3.694717047094368e-05,0.05732463708387017,0.5194623643482623,2.7964393259024733
19.237144986959535,-1.1515859478042656,6.196267736654851,0.08006091986605826,3.694717047094368e-05,0.05732463708387017,0.5201655488801455,2.807782100639556
19.317205906825592,-1.1515490006337947,6.253592373738721,0.08006091986605826,3.694717047094368e-05,0.05732463708387017,0.5207901945609866,2.8026884669986676
19.39726682669165,-1.1515120534633239,6.310917010822592,0.08006091986605826,3.694717047094368e-05,0.05732463708387017,0.5147669923799045,2.8116209604711204
19.477327746557705,-1.151475106292853,6.368241647906462,0.08006091986605826,3.694717047094368e-05,0.05732463708387017,0.5116086768358453,2.813903073111812
19.557388666423762,-1.1514381591223821,6.4255662849903326,0.08006091986605826,3.694717047094368e-05,0.05732463708387017,0.5099745838498194,2.8215569997033834
19.63744958628982,-1.1514012119519113,6.482890922074203,0.08006091986605826,3.694717047094368e-05,0.05732463708387017,0.5122746589145106,2.8280691284318302
19.717510506155875,-1.1513642647814404,6.5402155591580735,0.08006091986605826,3.694717047094368e-05,0.05732463708387017,0.5077532881420953,2.838219674798808
19.797571426021932,-1.1513273176109695,6.597540196241944,0.08006091986605826,3.694717047094368e-05,0.05732463708387017,0.5074862304499196,2.841726693573158
19.87763234588799,-1.1512903704404986,6.6548648333258145,0.08006091986605826,3.694717047094368e-05,0.05732463708387017,0.49785252369956684,2.8388460366307466
19.866011428084313,-1.142906122136314,6.596989675890547,-0.011620917803674526,0.008384248304184615,-0.05787515743526723,0.49424449465311654,2.8291160720192985
19.854390510280638,-1.1345218738321292,6.539114518455279,-0.011620917803674526,0.008384248304184615,-0.05787515743526723,0.4999832878425816,2.8240692320219507
19.842769592476962,-1.1261376255279445,6.481239361020012,-0.011620917803674526,0.008384248304184615,-0.05787515743526723,0.49540314977496475,2.8248656533284278
19.831148674673287,-1.1177533772237598,6.423364203584744,-0.011620917803674526,0.008384248304184615,-0.05787515743526723,0.49559472901562723,2.8126027210843074
19.81952775686961,-1.109369128919575,6.365489046149476,-0.011620917803674526,0.008384248304184615,-0.05787515743526723,0.49634000718456894,2.8077324505285777
19.807906839065936,-1.1009848806153903,6.307613888714209,-0.011620917803674526,0.008384248304184615,-0.05787515743526723,0.4887296099768175,2.810792030735481
19.79628592126226,-1.0926006323112056,6.249738731278941,-0.011620917803674526,0.008384248304184615,-0.05787515743526723,0.48815129947248176,2.8185174840877085
19.784665003458585,-1.084216384007021,6.191863573843674,-0.011620917803674526,0.008384248304184615,-0.05787515743526723,0.4865211077947677,2.817543061996017
19.77304408565491,-1.0758321357028362,6.133988416408406,-0.011620917803674526,0.008384248304184615,-0.05787515743526723,0.48143862989565545,2.80452068157973
19.761423167851234,-1.0674478873986515,6.076113258973138,-0.011620917803674526,0.008384248304184615,-0.05787515743526723,0.4814349472130025,2.8114775183789544
19.74980225004756,-1.0590636390944668,6.018238101537871,-0.011620917803674526,0.008384248304184615,-0.05787515743526723,0.4813037909571868,2.812705554002266
19.738181332243883,-1.050679390790282,5.960362944102603,-0.011620917803674526,0.008384248304184615,-0.05787515743526723,0.4804497291740706,2.8319066695994137
19.726560414440208,-1.0422951424860973,5.9024877866673355,-0.011620917803674526,0.008384248304184615,-0.05787515743526723,0.48223833277617845,2.824666118592148
19.714939496636532,-1.0339108941819126,5.844612629232068,-0.011620917803674526,0.008384248304184615,-0.05787515743526723,0.478575668882334,2.817828384740247
19.703318578832857,-1.025526645877728,5.7867374717968,-0.011620917803674526,0.008384248304184615,-0.05787515743526723,0.47885226897041955,2.824333939769358
19.69169766102918,-1.0171423975735432,5.728862314361533,-0.011620917803674526,0.008384248304184615,-0.05787515743526723,0.47120785813962546,2.8370985850413293
19.680076743225506,-1.0087581492693585,5.670987156926265,-0.011620917803674526,0.008384248304184615,-0.05787515743526723,0.4715630849691134,2.8228264659796913
19.66845582542183,-1.0003739009651738,5.6131119994909975,-0.011620917803674526,0.008384248304184615,-0.05787515743526723,0.4690490077533425,2.8163796638256695
19.656834907618155,-0.9919896526609892,5.55523684205573,-0.011620917803674526,0.008384248304184615,-0.05787515743526723,0.4691721893951584,2.8150790182219385
19.64521398981448,-0.9836054043568045,5.497361684620462,-0.011620917803674526,0.008384248304184615,-0.05787515743526723,0.4729928701141049,2.8144582969187333
19.633593072010804,-0.9752211560526199,5.439486527185195,-0.011620917803674526,0.008384248304184615,-0.05787515743526723,0.47446022076939653,2.8247644033855077
19.62197215420713,-0.9668369077484353,5.381611369749927,-0.011620917803674526,0.008384248304184615,-0.05787515743526723,0.4693650687315933,2.8215840763282443
19.610351236403453,-0.9584526594442507,5.323736212314659,-0.011620917803674526,0.008384248304184615,-0.05787515743526723,0.4666017070614197,2.830749029330163
19.598730318599777,-0.9500684111400661,5.265861054879392,-0.011620917803674526,0.008384248304184615,-0.05787515743526723,0.46514384092651373,2.830000201113523
19.587109400796102,-0.9416841628358815,5.207985897444124,-0.011620917803674526,0.008384248304184615,-0.05787515743526723,0.4680126883279021,2.812322102503975
19.575488482992426,-0.9332999145316969,5.150110740008857,-0.011620917803674526,0.008384248304184615,-0.05787515743526723,0.467904301976382,2.810099074164615
19.56386756518875,-0.9249156662275123,5.092235582573589,-0.011620917803674526,0.008384248304184615,-0.05787515743526723,0.469823965049438,2.815023853900655
19.552246647385076,-0.9165314179233277,5.034360425138321,-0.011620917803674526,0.008384248304184615,-0.05787515743526723,0.4668728822828137,2.8222395388993546
19.5406257295814,-0.9081471696191431,4.976485267703054,-0.011620917803674526,0.008384248304184615,-0.05787515743526723,0.46496329089945015,2.836849051718378
19.529004811777725,-0.8997629213149585,4.918610110267786,-0.011620917803674526,0.008384248304184615,-0.05787515743526723,0.4622262674616285,2.8364272703576408
19.51738389397405,-0.8913786730107739,4.8607349528325186,-0.011620917803674526,0.008384248304184615,-0.05787515743526723,0.4655353943530968,2.837813075613291
19.505762976170374,-0.8829944247065893,4.802859795397251,-0.011620917803674526,0.008384248304184615,-0.05787515743526723,0.46500819796328496,2.8246742475524207
19.494142058366698,-0.8746101764024047,4.744984637961983,-0.011620917803674526,0.008384248304184615,-0.05787515743526723,0.468582651074975,2.8278789835894775
19.482521140563023,-0.8662259280982201,4.687109480526716,-0.011620917803674526,0.008384248304184615,-0.05787515743526723,0.46659025120928815,2.8447266726568836
19.470900222759347,-0.8578416797940355,4.629234323091448,-0.011620917803674526,0.008384248304184615,-0.05787515743526723,0.4649814682366452,2.8603942232626087
19.459279304955672,-0.8494574314898509,4.5713591656561805,-0.011620917803674526,0.008384248304184615,-0.05787515743526723,0.4716151166262015,2.87855586526195
19.447658387151996,-0.8410731831856663,4.513484008220913,-0.011620917803674526,0.008384248304184615,-0.05787515743526723,0.4750296338083665,2.8817509037636633
19.43603746934832,-0.8326889348814817,4.455608850785645,-0.011620917803674526,0.008384248304184615,-0.05787515743526723,0.47272921374413185,2.8645058329915436
19.424416551544645,-0.824304686577297,4.397733693350378,-0.011620917803674526,0.008384248304184615,-0.05787515743526723,0.4724349467647736,2.86078610149205
19.41279563374097,-0.8159204382731124,4.33985853591511,-0.011620917803674526,0.008384248304184615,-0.05787515743526723,0.47368639347341107,2.8581693995526773
19.401174715937294,-0.8075361899689278,4.2819833784798425,-0.011620917803674526,0.008384248304184615,-0.05787515743526723,0.46608828545217823,2.8536952470131283
19.38955379813362,-0.7991519416647432,4.224108221044575,-0.011620917803674526,0.008384248304184615,-0.05787515743526723,0.4742317743762124,2.873754933596118
19.377932880329944,-0.7907676933605586,4.166233063609307,-0.011620917803674526,0.008384248304184615,-0.05787515743526723,0.47657625746853804,2.885730758124294
19.366311962526268,-0.782383445056374,4.10835790617404,-0.011620917803674526,0.008384248304184615,-0.05787515743526723,0.472660365393903,2.884549699141274
19.354691044722593,-0.7739991967521894,4.050482748738772,-0.011620917803674526,0.008384248304184615,-0.05787515743526723,0.46301609049101816,2.8914816231817184
19.343070126918917,-0.7656149484480048,3.992607591303505,-0.011620917803674526,0.008384248304184615,-0.05787515743526723,0.46432845781071674,2.884053835726634
19.33144920911524,-0.7572307001438202,3.9347324338682377,-0.011620917803674526,0.008384248304184615,-0.05787515743526723,0.4596805844660489,2.8901284776526053
19.319828291311566,-0.7488464518396356,3.8768572764329705,-0.011620917803674526,0.008384248304184615,-0.05787515743526723,0.4573516636961386,2.8996556780068006
19.30820737350789,-0.740462203535451,3.8189821189977033,-0.011620917803674526,0.008384248304184615,-0.05787515743526723,0.45772015476523303,2.886158279954723
19.296586455704215,-0.7320779552312664,3.761106961562436,-0.011620917803674526,0.008384248304184615,-0.05787515743526723,0.4536307904403936,2.886091975293158
19.28496553790054,-0.7236937069270818,3.703231804127169,-0.011620917803674526,0.008384248304184615,-0.05787515743526723,0.45519879065900704,2.8941369989641292
19.273344620096864,-0.7153094586228972,3.645356646691902,-0.011620917803674526,0.008384248304184615,-0.05787515743526723,0.4591442692710835,2.908014145913975
19.26172370229319,-0.7069252103187126,3.5874814892566347,-0.011620917803674526,0.008384248304184615,-0.05787515743526723,0.46178958434068657,2.899486456239369
19.250102784489513,-0.698540962014528,3.5296063318213675,-0.011620917803674526,0.008384248304184615,-0.05787515743526723,0.46125135211941937,2.883458138977784
19.238481866685838,-0.6901567137103434,3.4717311743861003,-0.011620917803674526,0.008384248304184615,-0.05787515743526723,0.45790743185729355,2.8742549422197845
19.226860948882162,-0.6817724654061588,3.413856016950833,-0.011620917803674526,0.008384248304184615,-0.05787515743526723,0.46186480151673276,2.8672998390460123
19.215240031078487,-0.6733882171019742,3.355980859515566,-0.011620917803674526,0.008384248304184615,-0.05787515743526723,0.45748628635565836,2.870718766366662
19.20361911327481,-0.6650039687977896,3.298105702080299,-0.011620917803674526,0.008384248304184615,-0.05787515743526723,0.45616101209996374,2.870181161687967
19.191998195471136,-0.656619720493605,3.2402305446450317,-0.011620917803674526,0.008384248304184615,-0.05787515743526723,0.45294191385284405,2.8581013571972558
19.18037727766746,-0.6482354721894203,3.1823553872097645,-0.011620917803674526,0.008384248304184615,-0.05787515743526723,0.4424612933701214,2.850244310073056
19.168756359863785,-0.6398512238852357,3.1244802297744974,-0.011620917803674526,0.008384248304184615,-0.05787515743526723,0.44680111320942695,2.8445996123707302
19.15713544206011,-0.6314669755810511,3.06660507233923,-0.011620917803674526,0.008384248304184615,-0.05787515743526723,0.4428464890888818,2.855701294497224
19.145514524256434,-0.6230827272768665,3.008729914903963,-0.011620917803674526,0.008384248304184615,-0.05787515743526723,0.43868486941171575,2.857628593774747
19.13389360645276,-0.6146984789726819,2.950854757468696,-0.011620917803674526,0.008384248304184615,-0.05787515743526723,0.4299211634469701,2.8617486375223646
19.122272688649083,-0.6063142306684973,2.8929796000334287,-0.011620917803674526,0.008384248304184615,-0.05787515743526723,0.42817001217675865,2.861770839970841
19.110651770845408,-0.5979299823643127,2.8351044425981615,-0.011620917803674526,0.008384248304184615,-0.05787515743526723,0.4307272434943271,2.858426267064527
19.099030853041732,-0.5895457340601281,2.7772292851628944,-0.011620917803674526,0.008384248304184615,-0.05787515743526723,0.4372533422286675,2.8508088550424713
19.087409935238057,-0.5811614857559435,2.719354127727627,-0.011620917803674526,0.008384248304184615,-0.05787515743526723,0.43397915238159346,2.84346460674962
19.07578901743438,-0.5727772374517589,2.66147897029236,-0.011620917803674526,0.008384248304184615,-0.05787515743526723,0.43770994283029685,2.8509103173394603
19.064168099630706,-0.5643929891475743,2.603603812857093,-0.011620917803674526,0.008384248304184615,-0.05787515743526723,0.4471842181644697,2.838855920628767
19.05254718182703,-0.5560087408433897,2.5457286554218257,-0.011620917803674526,0.008384248304184615,-0.05787515743526723,0.44433768683757496,2.8500306736172463
19.040926264023355,-0.5476244925392051,2.4878534979865585,-0.011620917803674526,0.008384248304184615,-0.05787515743526723,0.4432371319822321,2.8544309249182125
19.02930534621968,-0.5392402442350205,2.4299783405512914,-0.011620917803674526,0.008384248304184615,-0.05787515743526723,0.4426693678171674,2.849041494818057
19.017684428416004,-0.5308559959308359,2.372103183116024,-0.011620917803674526,0.008384248304184615,-0.05787515743526723,0.4496602211690231,2.84960680473557
19.00606351061233,-0.5224717476266513,2.314228025680757,-0.011620917803674526,0.008384248304184615,-0.05787515743526723,0.44715336299499153,2.847910079344228
18.994442592808653,-0.5140874993224667,2.25635286824549,-0.011620917803674526,0.008384248304184615,-0.05787515743526723,0.44686987246311094,2.87693065814911
18.982821675004978,-0.5057032510182821,2.1984777108102227,-0.011620917803674526,0.008384248304184615,-0.05787515743526723,0.44846428673299493,2.8870823109962065
18.930278079030884,-0.505540987713279,2.1773849276073607,-0.05254359597409282,0.00016226330500296733,-0.021092783202861953,0.4571028999237266,2.8832144596405453
18.87773448305679,-0.505378724408276,2.1562921444044987,-0.05254359597409282,0.00016226330500296733,-0.021092783202861953,0.46852711438603534,2.87907098389586
18.825190887082698,-0.505216461103273,2.1351993612016367,-0.05254359597409282,0.00016226330500296733,-0.021092783202861953,0.4609888230713577,2.8708681090407957
18.772647291108605,-0.50505419779827,2.1141065779987747,-0.05254359597409282,0.00016226330500296733,-0.021092783202861953,0.4643886040443557,2.8677966486430373
18.72010369513451,-0.504891934493267,2.0930137947959127,-0.05254359597409282,0.00016226330500296733,-0.021092783202861953,0.46103030312418997,2.880692388235884
18.66756009916042,-0.504729671188264,2.0719210115930506,-0.05254359597409282,0.00016226330500296733,-0.021092783202861953,0.46519957752324276,2.8798287405921212
18.615016503186325,-0.5045674078832609,2.0508282283901886,-0.05254359597409282,0.00016226330500296733,-0.021092783202861953,0.4796899034228328,2.8641124005693555
18.562472907212232,-0.5044051445782579,2.0297354451873266,-0.05254359597409282,0.00016226330500296733,-0.021092783202861953,0.4796899034228328,2.8580895468972067
18.50992931123814,-0.5042428812732549,2.0086426619844646,-0.05254359597409282,0.00016226330500296733,-0.021092783202861953,0.4796899034228328,2.8600183424184173
18.457385715264046,-0.5040806179682519,1.9875498787816026,-0.05254359597409282,0.00016226330500296733,-0.021092783202861953,0.47527430320848707,2.859143871297621
18.404842119289953,-0.5039183546632489,1.9664570955787406,-0.05254359597409282,0.00016226330500296733,-0.021092783202861953,0.4867305922138093,2.8515656697957916
18.35229852331586,-0.5037560913582458,1.9453643123758786,-0.05254359597409282,0.00016226330500296733,-0.021092783202861953,0.4775032113298313,2.833317270692561
18.299754927341766,-0.5035938280532428,1.9242715291730166,-0.05254359597409282,0.00016226330500296733,-0.021092783202861953,0.48404611868701075,2.836013189087813
18.247211331367673,-0.5034315647482398,1.9031787459701546,-0.05254359597409282,0.00016226330500296733,-0.021092783202861953,0.48000316894783324,2.8351111165315594
18.19466773539358,-0.5032693014432368,1.8820859627672926,-0.05254359597409282,0.00016226330500296733,-0.021092783202861953,0.4867944024655919,2.82719909945228
18.142124139419487,-0.5031070381382338,1.8609931795644306,-0.05254359597409282,0.00016226330500296733,-0.021092783202861953,0.4945291478034474,2.824765993757479
18.089580543445393,-0.5029447748332307,1.8399003963615685,-0.05254359597409282,0.00016226330500296733,-0.021092783202861953,0.4945291478034474,2.8353791786696867
18.0370369474713,-0.5027825115282277,1.8188076131587065,-0.05254359597409282,0.00016226330500296733,-0.021092783202861953,0.4970740705835388,2.8298854108932474
17.984493351497207,-0.5026202482232247,1.7977148299558445,-0.05254359597409282,0.00016226330500296733,-0.021092783202861953,0.5092681676129768,2.8222678131787995
17.931949755523114,-0.5024579849182217,1.7766220467529825,-0.05254359597409282,0.00016226330500296733,-0.021092783202861953,0.5092681676129768,2.814104403662686
17.87940615954902,-0.5022957216132187,1.7555292635501205,-0.05254359597409282,0.00016226330500296733,-0.021092783202861953,0.50619685540783,2.8229414943685276
17.826862563574927,-0.5021334583082157,1.7344364803472585,-0.05254359597409282,0.00016226330500296733,-0.021092783202861953,0.5211016756807803,2.8246698414423634
17.774318967600834,-0.5019711950032126,1.7133436971443965,-0.05254359597409282,0.00016226330500296733,-0.021092783202861953,0.5165718516648391,2.827795026856729
17.72177537162674,-0.5018089316982096,1.6922509139415345,-0.05254359597409282,0.00016226330500296733,-0.021092783202861953,0.513520130597653,2.8280797598695635
17.669231775652648,-0.5016466683932066,1.6711581307386725,-0.05254359597409282,0.00016226330500296733,-0.021092783202861953,0.513520130597653,2.832516655286345
17.616688179678555,-0.5014844050882036,1.6500653475358105,-0.05254359597409282,0.00016226330500296733,-0.021092783202861953,0.513520130597653,2.8476783772946885
17.56414458370446,-0.5013221417832006,1.6289725643329485,-0.05254359597409282,0.00016226330500296733,-0.021092783202861953,0.5281052456133795,2.8336295006708716
17.511600987730368,-0.5011598784781975,1.6078797811300864,-0.05254359597409282,0.00016226330500296733,-0.021092783202861953,0.5281052456133795,2.841440528631284
17.459057391756275,-0.5009976151731945,1.5867869979272244,-0.05254359597409282,0.00016226330500296733,-0.021092783202861953,0.5281052456133795,2.8372845968312954
17.406513795782182,-0.5008353518681915,1.5656942147243624,-0.05254359597409282,0.00016226330500296733,-0.021092783202861953,0.5314657922618656,2.8431038075033617
17.35397019980809,-0.5006730885631885,1.5446014315215004,-0.05254359597409282,0.00016226330500296733,-0.021092783202861953,0.5272683016346611,2.8282727793835623
17.301426603833995,-0.5005108252581855,1.5235086483186384,-0.05254359597409282,0.00016226330500296733,-0.021092783202861953,0.5374224380253464,2.8335086295122176
17.248883007859902,-0.5003485619531824,1.5024158651157764,-0.05254359597409282,0.00016226330500296733,-0.021092783202861953,0.5374224380253464,2.8267785106635506
17.19633941188581,-0.5001862986481794,1.4813230819129144,-0.05254359597409282,0.00016226330500296733,-0.021092783202861953,0.5398745828615161,2.830138488070683
17.143795815911716,-0.5000240353431764,1.4602302987100524,-0.05254359597409282,0.00016226330500296733,-0.021092783202861953,0.531533945948539,2.8418077457414346
17.091252219937623,-0.49986177203817345,1.4391375155071904,-0.05254359597409282,0.00016226330500296733,-0.021092783202861953,0.5416742505795817,2.8479106075212903
17.03870862396353,-0.4996995087331705,1.4180447323043284,-0.05254359597409282,0.00016226330500296733,-0.021092783202861953,0.539026680220764,2.8442111441555173
16.986165027989436,-0.4995372454281675,1.3969519491014664,-0.05254359597409282,0.00016226330500296733,-0.021092783202861953,0.5341488237672791,2.8357006389101382
16.933621432015343,-0.49937498212316456,1.3758591658986044,-0.05254359597409282,0.00016226330500296733,-0.021092783202861953,0.5434567141017286,2.850454163409067
16.88107783604125,-0.4992127188181616,1.3547663826957423,-0.05254359597409282,0.00016226330500296733,-0.021092783202861953,0.5412555580413144,2.8323186086932406
16.828534240067157,-0.49905045551315863,1.3336735994928803,-0.05254359597409282,0.00016226330500296733,-0.021092783202861953,0.5397304464581886,2.828255889692892
16.775990644093064,-0.49888819220815567,1.3125808162900183,-0.05254359597409282,0.00016226330500296733,-0.021092783202861953,0.5467132683142465,2.838158092905075
16.72344704811897,-0.4987259289031527,1.2914880330871563,-0.05254359597409282,0.00016226330500296733,-0.021092783202861953,0.5580131096261712,2.82112550808817
16.670903452144877,-0.49856366559814974,1.2703952498842943,-0.05254359597409282,0.00016226330500296733,-0.021092783202861953,0.5761995298909434,2.822945315028109
16.618359856170784,-0.4984014022931468,1.2493024666814323,-0.05254359597409282,0.00016226330500296733,-0.021092783202861953,0.5761995298909434,2.8079056965798195
16.56581626019669,-0.4982391389881438,1.2282096834785703,-0.05254359597409282,0.00016226330500296733,-0.021092783202861953,0.5761995298909434,2.813556290301704
16.513272664222598,-0.49807687568314085,1.2071169002757083,-0.05254359597409282,0.00016226330500296733,-0.021092783202861953,0.5761995298909434,2.810798848903545
16.460729068248504,-0.4979146123781379,1.1860241170728463,-0.05254359597409282,0.00016226330500296733,-0.021092783202861953,0.581528112132347,2.798450108089565
16.40818547227441,-0.4977523490731349,1.1649313338699843,-0.05254359597409282,0.00016226330500296733,-0.021092783202861953,0.5838276489266953,2.7637350682141038
16.355641876300318,-0.49759008576813196,1.1438385506671223,-0.05254359597409282,0.00016226330500296733,-0.021092783202861953,0.5796820704711334,2.784684001043988
16.303098280326225,-0.497427822463129,1.1227457674642602,-0.05254359597409282,0.00016226330500296733,-0.021092783202861953,0.5796820704711334,2.778478924103823
16.25055468435213,-0.49726555915812604,1.1016529842613982,-0.05254359597409282,0.00016226330500296733,-0.021092783202861953,0.5876141072802331,2.764438913070382
16.19801108837804,-0.4971032958531231,1.0805602010585362,-0.05254359597409282,0.00016226330500296733,-0.021092783202861953,0.5876141072802331,2.774429018343642
16.145467492403945,-0.4969410325481201,1.0594674178556742,-0.05254359597409282,0.00016226330500296733,-0.021092783202861953,0.5904941354434523,2.7858551481885065
16.092923896429852,-0.49677876924311715,1.0383746346528122,-0.05254359597409282,0.00016226330500296733,-0.021092783202861953,0.5904941354434523,2.786755597561445
16.04038030045576,-0.4966165059381142,1.0172818514499502,-0.05254359597409282,0.00016226330500296733,-0.021092783202861953,0.5904941354434523,2.7666186621059645
15.9720353610873,-0.510828904892764,1.0111116151496964,-0.06834493936845794,-0.014212398954649786,-0.006170236300253727,0.6089739261100677,2.7693171076098873
15.903690421718842,-0.5250413038474138,1.0049413788494426,-0.06834493936845794,-0.014212398954649786,-0.006170236300253727,0.6089739261100677,2.7762097395167915
15.868243450866586,-0.5245754138996618,1.0168943223920348,-0.035446970852255025,0.00046588994775194066,0.011952943542592213,0.6089739261100677,2.7774449577830143
15.83279648001433,-0.5241095239519098,1.028847265934627,-0.035446970852255025,0.00046588994775194066,0.011952943542592213,0.5997328668682769,2.7722411963110374
15.797349509162075,-0.5236436340041578,1.0408002094772193,-0.035446970852255025,0.00046588994775194066,0.011952943542592213,0.5951002262530869,2.766714994245897
15.761902538309819,-0.5231777440564058,1.0527531530198115,-0.035446970852255025,0.00046588994775194066,0.011952943542592213,0.6185939711718048,2.7702997900094366
15.726455567457563,-0.5227118541086538,1.0647060965624038,-0.035446970852255025,0.00046588994775194066,0.011952943542592213,0.6185939711718048,2.7727203280668005
15.691008596605307,-0.5222459641609019,1.076659040104996,-0.035446970852255025,0.00046588994775194066,0.011952943542592213,0.6185939711718048,2.7713935870596886
15.655561625753052,-0.5217800742131499,1.0886119836475883,-0.035446970852255025,0.00046588994775194066,0.011952943542592213,0.6185939711718048,2.7690428538016705
15.620114654900796,-0.5213141842653979,1.1005649271901805,-0.035446970852255025,0.00046588994775194066,0.011952943542592213,0.6185939711718048,2.762067422917776
15.58466768404854,-0.5208482943176459,1.1125178707327728,-0.035446970852255025,0.00046588994775194066,0.011952943542592213,0.6185939711718048,2.7633723816745626
15.549220713196284,-0.5203824043698939,1.124470814275365,-0.035446970852255025,0.00046588994775194066,0.011952943542592213,0.6185939711718048,2.7684548285804014
15.513773742344029,-0.5199165144221419,1.1364237578179572,-0.035446970852255025,0.00046588994775194066,0.011952943542592213,0.610263982284872,2.772634274113642
15.478326771491773,-0.5194506244743899,1.1483767013605495,-0.035446970852255025,0.00046588994775194066,0.011952943542592213,0.610263982284872,2.781334430439259
15.442879800639517,-0.518984734526638,1.1603296449031417,-0.035446970852255025,0.00046588994775194066,0.011952943542592213,0.610263982284872,2.7887381607059534
15.407432829787261,-0.518518844578886,1.172282588445734,-0.035446970852255025,0.00046588994775194066,0.011952943542592213,0.610263982284872,2.7940619941572877
15.371985858935005,-0.518052954631134,1.1842355319883262,-0.035446970852255025,0.00046588994775194066,0.011952943542592213,0.610263982284872,2.8030602124644557
15.33653888808275,-0.517587064683382,1.1961884755309184,-0.035446970852255025,0.00046588994775194066,0.011952943542592213,0.610263982284872,2.8127311159915416
15.301091917230494,-0.51712117473563,1.2081414190735107,-0.035446970852255025,0.00046588994775194066,0.011952943542592213,0.610263982284872,2.8147031959805755
15.265644946378238,-0.516655284787878,1.220094362616103,-0.035446970852255025,0.00046588994775194066,0.011952943542592213,0.610263982284872,2.819029130839075
15.230197975525982,-0.516189394840126,1.2320473061586952,-0.035446970852255025,0.00046588994775194066,0.011952943542592213,0.610263982284872,2.8058889536697973
15.194751004673726,-0.5157235048923741,1.2440002497012874,-0.035446970852255025,0.00046588994775194066,0.011952943542592213,0.610263982284872,2.8129555083136255
15.15930403382147,-0.5152576149446221,1.2559531932438797,-0.035446970852255025,0.00046588994775194066,0.011952943542592213,0.610263982284872,2.7964670036127552
15.123857062969215,-0.5147917249968701,1.267906136786472,-0.035446970852255025,0.00046588994775194066,0.011952943542592213,0.6070357273468168,2.799344197085261
15.088410092116959,-0.5143258350491181,1.2798590803290641,-0.035446970852255025,0.00046588994775194066,0.011952943542592213,0.6124956762947446,2.789554364716821
15.052963121264703,-0.5138599451013661,1.2918120238716564,-0.035446970852255025,0.00046588994775194066,0.011952943542592213,0.6079255884448529,2.7945132037068467
15.017516150412447,-0.5133940551536141,1.3037649674142486,-0.035446970852255025,0.00046588994775194066,0.011952943542592213,0.6140956425972568,2.789737728375488
14.982069179560192,-0.5129281652058622,1.3157179109568409,-0.035446970852255025,0.00046588994775194066,0.011952943542592213,0.6030413264165231,2.7908809706143214
