theta,phi,z,dtheta,dphi,dz,ecg,eda
0.7229091610641774,0.34264263855288135,2.2005186776738945,0.0,0.0,0.0,-0.00042030894550152987,-0.00107374075594738
0.7253743005042003,0.330450908101179,2.153880677503288,0.0024651394400229606,-0.012191730451702345,-0.04663800017060623,0.0009898599438299268,-0.00011766631987357584
0.7278394399442232,0.31825917764947664,2.107242677332682,0.0024651394400229606,-0.012191730451702345,-0.04663800017060623,0.00015262631756568303,-5.95764999854744e-05
0.7303045793842461,0.3060674471977743,2.0606046771620754,0.0024651394400229606,-0.012191730451702345,-0.04663800017060623,-3.9241430455593395e-06,0.00013956627613829028
0.732769718824269,0.29387571674607194,2.013966676991469,0.0024651394400229606,-0.012191730451702345,-0.04663800017060623,-6.815285871636884e-05,-0.0005860887942541787
0.7352348582642919,0.2816839862943696,1.9673286768208629,0.0024651394400229606,-0.012191730451702345,-0.04663800017060623,0.4759704766262528,0.0014482210603122014
0.7376999977043148,0.2694922558426672,1.9206906766502567,0.0024651394400229606,-0.012191730451702345,-0.04663800017060623,0.4759704766262528,0.00026474225051116877
0.7401651371443377,0.2573005253909649,1.8740526764796506,0.0024651394400229606,-0.012191730451702345,-0.04663800017060623,0.4759704766262528,0.00042179517057626864
0.7426302765843606,0.24510879493926252,1.8274146763090444,0.0024651394400229606,-0.012191730451702345,-0.04663800017060623,0.4732498878895589,0.0011460569064869568
0.7450954160243836,0.23291706448756017,1.7807766761384383,0.0024651394400229606,-0.012191730451702345,-0.04663800017060623,0.5079283006296464,2.269422963161094e-05
0.7475605554644065,0.2207253340358578,1.734138675967832,0.0024651394400229606,-0.012191730451702345,-0.04663800017060623,0.5079283006296464,-0.0011708956399537776
0.7500256949044294,0.20853360358415546,1.687500675797226,0.0024651394400229606,-0.012191730451702345,-0.04663800017060623,0.49920255453817863,-0.00034996608234439736
0.7524908343444523,0.1963418731324531,1.6408626756266198,0.0024651394400229606,-0.012191730451702345,-0.04663800017060623,0.5068415710320995,-0.0019808023618024116
0.7549559737844752,0.18415014268075075,1.5942246754560137,0.0024651394400229606,-0.012191730451702345,-0.04663800017060623,0.49781286940378294,-0.00026052251109261214
0.7574211132244981,0.1719584122290484,1.5475866752854075,0.0024651394400229606,-0.012191730451702345,-0.04663800017060623,0.49781286940378294,-0.0006533140347369142
0.759886252664521,0.15976668177734604,1.5009486751148013,0.0024651394400229606,-0.012191730451702345,-0.04663800017060623,0.5041279326267025,1.7168949709201
0.762351392104544,0.1475749513256437,1.4543106749441952,0.0024651394400229606,-0.012191730451702345,-0.04663800017060623,0.5235247317558516,1.7168949709201
0.7648165315445669,0.13538322087394133,1.407672674773589,0.0024651394400229606,-0.012191730451702345,-0.04663800017060623,0.5235247317558516,1.7168949709201
0.7672816709845898,0.123191490422239,1.3610346746029829,0.0024651394400229606,-0.012191730451702345,-0.04663800017060623,0.5295926036145375,1.7168949709201
0.7697468104246127,0.11099975997053665,1.3143966744323767,0.0024651394400229606,-0.012191730451702345,-0.04663800017060623,0.5325172956202202,1.7168949709201
0.7722119498646356,0.09880802951883431,1.2677586742617706,0.0024651394400229606,-0.012191730451702345,-0.04663800017060623,0.5338028222970894,1.7168949709201
0.7746770893046585,0.08661629906713197,1.2211206740911644,0.0024651394400229606,-0.012191730451702345,-0.04663800017060623,0.535503585958866,1.7168949709201
0.7771422287446814,0.07442456861542963,1.1744826739205583,0.0024651394400229606,-0.012191730451702345,-0.04663800017060623,0.5634424857309404,2.036284223347604
0.7796073681847043,0.06223283816372729,1.1278446737499521,0.0024651394400229606,-0.012191730451702345,-0.04663800017060623,0.5634424857309404,2.036284223347604
0.7820725076247272,0.05004110771202494,1.081206673579346,0.0024651394400229606,-0.012191730451702345,-0.04663800017060623,0.5754174784715677,2.036284223347604
0.7845376470647502,0.03784937726032259,1.0345686734087398,0.0024651394400229606,-0.012191730451702345,-0.04663800017060623,0.5885072460403212,2.036284223347604
0.7966980762753858,0.03621307343376389,1.067917934772048,0.012160429210635676,-0.001636303826558704,0.03334926136330817,0.5866255543916682,2.036284223347604
0.8088585054860215,0.03457676960720519,1.1012671961353562,0.012160429210635676,-0.001636303826558704,0.03334926136330817,0.5766503941411171,2.036284223347604
0.8210189346966571,0.03294046578064649,1.1346164574986644,0.012160429210635676,-0.001636303826558704,0.03334926136330817,0.5897012933815682,2.036284223347604
0.8331793639072927,0.031304161954087785,1.1679657188619725,0.012160429210635676,-0.001636303826558704,0.03334926136330817,0.5897012933815682,2.036284223347604
0.8453397931179284,0.02966785812752908,1.2013149802252807,0.012160429210635676,-0.001636303826558704,0.03334926136330817,0.5971823967886345,2.036284223347604
0.857500222328564,0.028031554300970374,1.234664241588589,0.012160429210635676,-0.001636303826558704,0.03334926136330817,0.5971823967886345,2.036284223347604
0.8696606515391997,0.026395250474411668,1.268013502951897,0.012160429210635676,-0.001636303826558704,0.03334926136330817,0.5971823967886345,2.2826147634306895
0.8818210807498353,0.024758946647852963,1.3013627643152053,0.012160429210635676,-0.001636303826558704,0.03334926136330817,0.6046902633128448,2.2826147634306895
0.893981509960471,0.023122642821294257,1.3347120256785134,0.012160429210635676,-0.001636303826558704,0.03334926136330817,0.6046902633128448,2.2826147634306895
0.9061419391711066,0.02148633899473555,1.3680612870418216,0.012160429210635676,-0.001636303826558704,0.03334926136330817,0.6046902633128448,2.2826147634306895
0.9183023683817423,0.019850035168176846,1.4014105484051298,0.012160429210635676,-0.001636303826558704,0.03334926136330817,0.6046902633128448,2.2826147634306895
0.9304627975923779,0.01821373134161814,1.434759809768438,0.012160429210635676,-0.001636303826558704,0.03334926136330817,0.6046902633128448,2.529774193816082
0.9426232268030136,0.016577427515059435,1.4681090711317462,0.012160429210635676,-0.001636303826558704,0.03334926136330817,0.6046902633128448,2.529774193816082
0.9547836560136492,0.014941123688500731,1.5014583324950543,0.012160429210635676,-0.001636303826558704,0.03334926136330817,0.6046902633128448,2.529774193816082
0.9669440852242849,0.013304819861942027,1.5348075938583625,0.012160429210635676,-0.001636303826558704,0.03334926136330817,0.6046902633128448,2.529774193816082
0.9791045144349205,0.011668516035383323,1.5681568552216707,0.012160429210635676,-0.001636303826558704,0.03334926136330817,0.6046902633128448,2.529774193816082
0.9912649436455562,0.01003221220882462,1.6015061165849789,0.012160429210635676,-0.001636303826558704,0.03334926136330817,0.6046902633128448,2.529774193816082
1.003425372856192,0.008395908382265916,1.634855377948287,0.012160429210635676,-0.001636303826558704,0.03334926136330817,0.6046902633128448,2.529774193816082
1.0155858020668276,0.006759604555707212,1.6682046393115952,0.012160429210635676,-0.001636303826558704,0.03334926136330817,0.6059642040346949,2.529774193816082
1.0277462312774632,0.005123300729148508,1.7015539006749034,0.012160429210635676,-0.001636303826558704,0.03334926136330817,0.6050884920993979,2.529774193816082
1.0399066604880989,0.003486996902589804,1.7349031620382116,0.012160429210635676,-0.001636303826558704,0.03334926136330817,0.606289180351876,2.529774193816082
1.0520670896987345,0.0018506930760311,1.7682524234015198,0.012160429210635676,-0.001636303826558704,0.03334926136330817,0.6028658558456178,2.529774193816082
1.0642275189093702,0.00021438924947239603,1.801601684764828,0.012160429210635676,-0.001636303826558704,0.03334926136330817,0.5996658733841296,2.529774193816082
1.0763879481200058,-0.001421914577086308,1.8349509461281361,0.012160429210635676,-0.001636303826558704,0.03334926136330817,0.600717354793497,2.529774193816082
1.0885483773306415,-0.003058218403645012,1.8683002074914443,0.012160429210635676,-0.001636303826558704,0.03334926136330817,0.5985888292968389,2.529774193816082
1.1007088065412771,-0.004694522230203716,1.9016494688547525,0.012160429210635676,-0.001636303826558704,0.03334926136330817,0.6050028707708625,2.529774193816082
1.1128692357519128,-0.00633082605676242,1.9349987302180607,0.012160429210635676,-0.001636303826558704,0.03334926136330817,0.6089375974141928,2.529774193816082
1.1250296649625484,-0.007967129883321124,1.9683479915813689,0.012160429210635676,-0.001636303826558704,0.03334926136330817,0.6052133165892274,2.529774193816082
1.137190094173184,-0.009603433709879828,2.001697252944677,0.012160429210635676,-0.001636303826558704,0.03334926136330817,0.6009033230979013,2.529774193816082
1.1493505233838197,-0.011239737536438532,2.035046514307985,0.012160429210635676,-0.001636303826558704,0.03334926136330817,0.6023529822970703,2.529774193816082
1.1615109525944554,-0.012876041362997236,2.068395775671293,0.012160429210635676,-0.001636303826558704,0.03334926136330817,0.610920253571205,2.529774193816082
1.173671381805091,-0.01451234518955594,2.1017450370346014,0.012160429210635676,-0.001636303826558704,0.03334926136330817,0.6129368149791292,2.529774193816082
1.1858318110157267,-0.016148649016114645,2.1350942983979095,0.012160429210635676,-0.001636303826558704,0.03334926136330817,0.6143308720892914,2.529774193816082
1.1979922402263623,-0.01778495284267335,2.1684435597612177,0.012160429210635676,-0.001636303826558704,0.03334926136330817,0.6159439112006115,2.529774193816082
1.210152669436998,-0.019421256669232057,2.201792821124526,0.012160429210635676,-0.001636303826558704,0.03334926136330817,0.6118102541642869,2.529774193816082
1.2223130986476336,-0.021057560495790762,2.235142082487834,0.012160429210635676,-0.001636303826558704,0.03334926136330817,0.6141610975358519,2.529774193816082
1.2344735278582692,-0.022693864322349468,2.2684913438511423,0.012160429210635676,-0.001636303826558704,0.03334926136330817,0.6163313399099386,2.529774193816082
1.246633957068905,-0.024330168148908173,2.3018406052144504,0.012160429210635676,-0.001636303826558704,0.03334926136330817,0.610598115930777,2.529774193816082
1.2587943862795405,-0.02596647197546688,2.3351898665777586,0.012160429210635676,-0.001636303826558704,0.03334926136330817,0.608899512044325,2.529774193816082
1.2709548154901762,-0.027602775802025584,2.368539127941067,0.012160429210635676,-0.001636303826558704,0.03334926136330817,0.6059929855224192,2.529774193816082
1.2831152447008118,-0.02923907962858429,2.401888389304375,0.012160429210635676,-0.001636303826558704,0.03334926136330817,0.6111123368625289,2.529774193816082
1.2952756739114475,-0.030875383455142996,2.435237650667683,0.012160429210635676,-0.001636303826558704,0.03334926136330817,0.6107322614384847,2.529774193816082
1.3074361031220831,-0.0325116872817017,2.4685869120309913,0.012160429210635676,-0.001636303826558704,0.03334926136330817,0.6085982824901196,2.529774193816082
1.3195965323327188,-0.0341479911082604,2.5019361733942995,0.012160429210635676,-0.001636303826558704,0.03334926136330817,0.6042194523587076,2.520514339142346
1.3317569615433544,-0.035784294934819105,2.5352854347576077,0.012160429210635676,-0.001636303826558704,0.03334926136330817,0.5977998494034614,2.5300668983659085
1.34391739075399,-0.03742059876137781,2.568634696120916,0.012160429210635676,-0.001636303826558704,0.03334926136330817,0.594457690755816,2.533709192091551
1.3560778199646257,-0.03905690258793651,2.601983957484224,0.012160429210635676,-0.001636303826558704,0.03334926136330817,0.5948416722387171,2.523612563361002
1.3682382491752614,-0.04069320641449521,2.6353332188475322,0.012160429210635676,-0.001636303826558704,0.03334926136330817,0.591829699331165,2.5275654546124646
1.380398678385897,-0.042329510241053914,2.6686824802108404,0.012160429210635676,-0.001636303826558704,0.03334926136330817,0.5950256131933925,2.5223505036109306
1.3925591075965327,-0.043965814067612616,2.7020317415741486,0.012160429210635676,-0.001636303826558704,0.03334926136330817,0.5816266674043302,2.5117400185431102
1.4047195368071683,-0.04560211789417132,2.735381002937457,0.012160429210635676,-0.001636303826558704,0.03334926136330817,0.5772839653393729,2.5096799695589973
1.416879966017804,-0.04723842172073002,2.768730264300765,0.012160429210635676,-0.001636303826558704,0.03334926136330817,0.5731380320416029,2.515334974056259
1.4290403952284396,-0.04887472554728872,2.802079525664073,0.012160429210635676,-0.001636303826558704,0.03334926136330817,0.5772646666704978,2.520617501344976
1.4412008244390753,-0.050511029373847424,2.8354287870273813,0.012160429210635676,-0.001636303826558704,0.03334926136330817,0.5786376490853655,2.520500612702733
1.453361253649711,-0.052147333200406126,2.8687780483906895,0.012160429210635676,-0.001636303826558704,0.03334926136330817,0.5796760355579549,2.5228153834717
1.4655216828603466,-0.05378363702696483,2.9021273097539977,0.012160429210635676,-0.001636303826558704,0.03334926136330817,0.5832863460273,2.5156098472099724
1.4776821120709822,-0.05541994085352353,2.935476571117306,0.012160429210635676,-0.001636303826558704,0.03334926136330817,0.5684541532200572,2.5111685556971253
1.4898425412816179,-0.05705624468008223,2.968825832480614,0.012160429210635676,-0.001636303826558704,0.03334926136330817,0.5474081841416857,2.5138875241541054
1.5020029704922535,-0.058692548506640935,3.0021750938439222,0.012160429210635676,-0.001636303826558704,0.03334926136330817,0.5381209078585396,2.515163746201324
1.5141633997028892,-0.06032885233319964,3.0355243552072304,0.012160429210635676,-0.001636303826558704,0.03334926136330817,0.532100569037355,2.515148804674538
1.5263238289135248,-0.06196515615975834,3.0688736165705386,0.012160429210635676,-0.001636303826558704,0.03334926136330817,0.531116315580772,2.5170966244444832
1.5384842581241605,-0.06360145998631704,3.1022228779338468,0.012160429210635676,-0.001636303826558704,0.03334926136330817,0.5273110600210963,2.5040322878006367
1.550644687334796,-0.06523776381287574,3.135572139297155,0.012160429210635676,-0.001636303826558704,0.03334926136330817,0.5229932361763597,2.504203447499507
1.5628051165454317,-0.06687406763943445,3.168921400660463,0.012160429210635676,-0.001636303826558704,0.03334926136330817,0.5288532870045677,2.5114549718274715
1.5749655457560674,-0.06851037146599315,3.2022706620237713,0.012160429210635676,-0.001636303826558704,0.03334926136330817,0.5322503500971569,2.504078598858929
1.587125974966703,-0.07014667529255185,3.2356199233870795,0.012160429210635676,-0.001636303826558704,0.03334926136330817,0.527826658966313,2.5177143398964654
1.5992864041773387,-0.07178297911911055,3.2689691847503877,0.012160429210635676,-0.001636303826558704,0.03334926136330817,0.5329663535985937,2.5342860928965885
1.6114468333879743,-0.07341928294566925,3.302318446113696,0.012160429210635676,-0.001636303826558704,0.03334926136330817,0.5300671933570505,2.5199125138229985
1.62360726259861,-0.07505558677222796,3.335667707477004,0.012160429210635676,-0.001636303826558704,0.03334926136330817,0.5287479234998217,2.5219095172583237
1.6357676918092456,-0.07669189059878666,3.369016968840312,0.012160429210635676,-0.001636303826558704,0.03334926136330817,0.5284787895609612,2.517228477460535
1.6479281210198813,-0.07832819442534536,3.4023662302036204,0.012160429210635676,-0.001636303826558704,0.03334926136330817,0.5335107934026733,2.512222115741834
1.660088550230517,-0.07996449825190406,3.4357154915669286,0.012160429210635676,-0.001636303826558704,0.03334926136330817,0.536620253896194,2.5139573390081797
1.6722489794411526,-0.08160080207846276,3.4690647529302368,0.012160429210635676,-0.001636303826558704,0.03334926136330817,0.5298145804229405,2.525473327153729
1.6844094086517882,-0.08323710590502147,3.502414014293545,0.012160429210635676,-0.001636303826558704,0.03334926136330817,0.5255600674011648,2.521640322387331
1.6965698378624239,-0.08487340973158017,3.535763275656853,0.012160429210635676,-0.001636303826558704,0.03334926136330817,0.5310209306521115,2.5134702067398322
1.7087302670730595,-0.08650971355813887,3.5691125370201613,0.012160429210635676,-0.001636303826558704,0.03334926136330817,0.5271652602161084,2.5038200401967163
1.7208906962836952,-0.08814601738469757,3.6024617983834695,0.012160429210635676,-0.001636303826558704,0.03334926136330817,0.5284248576155575,2.4873761037835482
1.7330511254943308,-0.08978232121125627,3.6358110597467777,0.012160429210635676,-0.001636303826558704,0.03334926136330817,0.5318484722424561,2.5132947063782
1.7452115547049665,-0.09141862503781498,3.669160321110086,0.012160429210635676,-0.001636303826558704,0.03334926136330817,0.5366381914563778,2.517987558591726
1.7573719839156021,-0.09305492886437368,3.702509582473394,0.012160429210635676,-0.001636303826558704,0.03334926136330817,0.5216420427980869,2.534856871728143
1.7695324131262378,-0.09469123269093238,3.735858843836702,0.012160429210635676,-0.001636303826558704,0.03334926136330817,0.5240251977291597,2.538283513188131
1.7816928423368734,-0.09632753651749108,3.7692081052000104,0.012160429210635676,-0.001636303826558704,0.03334926136330817,0.5172111639414343,2.5381397228638094
1.793853271547509,-0.09796384034404979,3.8025573665633186,0.012160429210635676,-0.001636303826558704,0.03334926136330817,0.5212159753770903,2.537331591661557
1.8060137007581447,-0.09960014417060849,3.8359066279266267,0.012160429210635676,-0.001636303826558704,0.03334926136330817,0.5270436647555573,2.5433504495077255
1.8181741299687804,-0.10123644799716719,3.869255889289935,0.012160429210635676,-0.001636303826558704,0.03334926136330817,0.5288409901317449,2.5520329164367612
1.830334559179416,-0.10287275182372589,3.902605150653243,0.012160429210635676,-0.001636303826558704,0.03334926136330817,0.5298956113944905,2.5660482706574466
1.8424949883900517,-0.1045090556502846,3.9359544120165513,0.012160429210635676,-0.001636303826558704,0.03334926136330817,0.5288019778944123,2.554227507901862
1.8546554176006873,-0.1061453594768433,3.9693036733798595,0.012160429210635676,-0.001636303826558704,0.03334926136330817,0.532786753063444,2.547613444729446
1.866815846811323,-0.107781663303402,4.002652934743168,0.012160429210635676,-0.001636303826558704,0.03334926136330817,0.5313981944653487,2.5482807592576013
1.8513230134286243,-0.11625242648034648,4.0744671035007745,-0.015492833382698646,-0.008470763176944483,0.07181416875760656,0.5388545234011449,2.5514577008058157
1.8358301800459256,-0.12472318965729096,4.146281272258381,-0.015492833382698646,-0.008470763176944483,0.07181416875760656,0.5336941632752206,2.540913549337392
1.8203373466632269,-0.13319395283423544,4.218095441015988,-0.015492833382698646,-0.008470763176944483,0.07181416875760656,0.5298880357043771,2.5319055232954906
1.8048445132805282,-0.14166471601117991,4.289909609773595,-0.015492833382698646,-0.008470763176944483,0.07181416875760656,0.536123950037853,2.5305717652692765
1.7893516798978295,-0.1501354791881244,4.361723778531202,-0.015492833382698646,-0.008470763176944483,0.07181416875760656,0.5289988826119,2.5392622514234655
1.7738588465151308,-0.15860624236506887,4.433537947288809,-0.015492833382698646,-0.008470763176944483,0.07181416875760656,0.5268384057302731,2.5591403508472506
1.7583660131324321,-0.16707700554201335,4.505352116046415,-0.015492833382698646,-0.008470763176944483,0.07181416875760656,0.5182604082608935,2.556797993306428
1.7428731797497334,-0.17554776871895783,4.577166284804022,-0.015492833382698646,-0.008470763176944483,0.07181416875760656,0.5283180027067313,2.563213604788212
1.7273803463670347,-0.1840185318959023,4.648980453561629,-0.015492833382698646,-0.008470763176944483,0.07181416875760656,0.5266593471260796,2.5755956150820194
1.711887512984336,-0.1924892950728468,4.720794622319236,-0.015492833382698646,-0.008470763176944483,0.07181416875760656,0.5288109756881512,2.580796321827901
1.6963946796016374,-0.20096005824979127,4.792608791076843,-0.015492833382698646,-0.008470763176944483,0.07181416875760656,0.5347341569771026,2.584684546590482
1.6809018462189387,-0.20943082142673575,4.8644229598344495,-0.015492833382698646,-0.008470763176944483,0.07181416875760656,0.5265110196338405,2.577395230441529
1.66540901283624,-0.21790158460368023,4.936237128592056,-0.015492833382698646,-0.008470763176944483,0.07181416875760656,0.5208895087155034,2.581698758387864
1.6499161794535413,-0.2263723477806247,5.008051297349663,-0.015492833382698646,-0.008470763176944483,0.07181416875760656,0.5144618431902817,2.590081951384089
1.6344233460708426,-0.23484311095756918,5.07986546610727,-0.015492833382698646,-0.008470763176944483,0.07181416875760656,0.5117748398841037,2.6117929377169617
1.618930512688144,-0.24331387413451366,5.151679634864877,-0.015492833382698646,-0.008470763176944483,0.07181416875760656,0.5128653320224971,2.6257336028927285
1.6034376793054452,-0.25178463731145817,5.223493803622484,-0.015492833382698646,-0.008470763176944483,0.07181416875760656,0.5157744636323902,2.62198177871859
1.5879448459227465,-0.2602554004884027,5.29530797238009,-0.015492833382698646,-0.008470763176944483,0.07181416875760656,0.5136704294008547,2.6208977113494782
1.5724520125400478,-0.2687261636653472,5.367122141137697,-0.015492833382698646,-0.008470763176944483,0.07181416875760656,0.509779580778018,2.6235584662125806
1.5569591791573492,-0.2771969268422917,5.438936309895304,-0.015492833382698646,-0.008470763176944483,0.07181416875760656,0.5148767375429262,2.605402905355193
1.5414663457746505,-0.2856676900192362,5.510750478652911,-0.015492833382698646,-0.008470763176944483,0.07181416875760656,0.5202748421496836,2.5922699402559997
1.5259735123919518,-0.2941384531961807,5.582564647410518,-0.015492833382698646,-0.008470763176944483,0.07181416875760656,0.523188658199669,2.597866814864655
1.510480679009253,-0.3026092163731252,5.6543788161681245,-0.015492833382698646,-0.008470763176944483,0.07181416875760656,0.5242189941326415,2.5918794543484154
1.4949878456265544,-0.3110799795500697,5.726192984925731,-0.015492833382698646,-0.008470763176944483,0.07181416875760656,0.5224623309488471,2.5929878633987173
1.4794950122438557,-0.3195507427270142,5.798007153683338,-0.015492833382698646,-0.008470763176944483,0.07181416875760656,0.520858310302809,2.587380331579721
1.464002178861157,-0.32802150590395873,5.869821322440945,-0.015492833382698646,-0.008470763176944483,0.07181416875760656,0.5211076531505062,2.58352678266133
1.4485093454784583,-0.33649226908090324,5.941635491198552,-0.015492833382698646,-0.008470763176944483,0.07181416875760656,0.5207458385721251,2.58172766246633
1.4330165120957596,-0.34496303225784775,6.013449659956159,-0.015492833382698646,-0.008470763176944483,0.07181416875760656,0.5130659700877997,2.5789451417530853
1.417523678713061,-0.35343379543479225,6.0852638287137655,-0.015492833382698646,-0.008470763176944483,0.07181416875760656,0.5131593375107129,2.5895608582189977
1.4020308453303623,-0.36190455861173676,6.157077997471372,-0.015492833382698646,-0.008470763176944483,0.07181416875760656,0.5069896806455646,2.5908206643813667
1.3865380119476636,-0.37037532178868127,6.228892166228979,-0.015492833382698646,-0.008470763176944483,0.07181416875760656,0.4980578032540217,2.591337573847023
1.3710451785649649,-0.3788460849656258,6.300706334986586,-0.015492833382698646,-0.008470763176944483,0.07181416875760656,0.5011233288488188,2.59085711099766
1.3555523451822662,-0.3873168481425703,6.372520503744193,-0.015492833382698646,-0.008470763176944483,0.07181416875760656,0.5002620662123543,2.5784899725176027
1.3400595117995675,-0.3957876113195148,6.4443346725018,-0.015492833382698646,-0.008470763176944483,0.07181416875760656,0.4981698799264861,2.5788700423844824
1.3245666784168688,-0.4042583744964593,6.516148841259406,-0.015492833382698646,-0.008470763176944483,0.07181416875760656,0.5016757086320408,2.5794080079765074
1.3090738450341701,-0.4127291376734038,6.587963010017013,-0.015492833382698646,-0.008470763176944483,0.07181416875760656,0.5039825954978684,2.582972492605139
1.2935810116514714,-0.4211999008503483,6.65977717877462,-0.015492833382698646,-0.008470763176944483,0.07181416875760656,0.4946793618475731,2.5688913926767625
1.2780881782687727,-0.4296706640272928,6.731591347532227,-0.015492833382698646,-0.008470763176944483,0.07181416875760656,0.49121909692317883,2.578003981420734
1.262595344886074,-0.4381414272042373,6.803405516289834,-0.015492833382698646,-0.008470763176944483,0.07181416875760656,0.4818756443202451,2.570421396861032
1.2471025115033754,-0.44661219038118183,6.8752196850474405,-0.015492833382698646,-0.008470763176944483,0.07181416875760656,0.478983433149546,2.5866629245600548
1.2316096781206767,-0.45508295355812634,6.947033853805047,-0.015492833382698646,-0.008470763176944483,0.07181416875760656,0.47707079635662464,2.562961074058389
1.216116844737978,-0.46355371673507084,7.018848022562654,-0.015492833382698646,-0.008470763176944483,0.07181416875760656,0.4789205791861386,2.553626890527482
1.2006240113552793,-0.47202447991201535,7.090662191320261,-0.015492833382698646,-0.008470763176944483,0.07181416875760656,0.47763732274370463,2.560737255199669
1.1851311779725806,-0.48049524308895986,7.162476360077868,-0.015492833382698646,-0.008470763176944483,0.07181416875760656,0.4734426993896524,2.5630188244834033
1.169638344589882,-0.48896600626590436,7.234290528835475,-0.015492833382698646,-0.008470763176944483,0.07181416875760656,0.47382862608843074,2.5622229199277964
1.1541455112071832,-0.49743676944284887,7.3061046975930815,-0.015492833382698646,-0.008470763176944483,0.07181416875760656,0.46475774373855877,2.5382723786010475
1.1386526778244845,-0.5059075326197934,7.377918866350688,-0.015492833382698646,-0.008470763176944483,0.07181416875760656,0.46011917632158844,2.5487602692002467
1.1231598444417858,-0.5143782957967379,7.449733035108295,-0.015492833382698646,-0.008470763176944483,0.07181416875760656,0.46412577383504655,2.5352371775433067
1.1076670110590872,-0.5228490589736824,7.521547203865902,-0.015492833382698646,-0.008470763176944483,0.07181416875760656,0.4648703856826618,2.528713156331528
1.0921741776763885,-0.5313198221506269,7.593361372623509,-0.015492833382698646,-0.008470763176944483,0.07181416875760656,0.4721507523708453,2.5291679669659075
1.0766813442936898,-0.5397905853275714,7.665175541381116,-0.015492833382698646,-0.008470763176944483,0.07181416875760656,0.4670827568316141,2.512048202578702
1.061188510910991,-0.5482613485045159,7.736989710138722,-0.015492833382698646,-0.008470763176944483,0.07181416875760656,0.478839131051018,2.5224381294617815
1.0456956775282924,-0.5567321116814604,7.808803878896329,-0.015492833382698646,-0.008470763176944483,0.07181416875760656,0.4723670026179401,2.5250795231096417
1.0302028441455937,-0.5652028748584049,7.880618047653936,-0.015492833382698646,-0.008470763176944483,0.07181416875760656,0.4698689062650417,2.520042790823081
1.014710010762895,-0.5736736380353494,7.952432216411543,-0.015492833382698646,-0.008470763176944483,0.07181416875760656,0.46280075409722726,2.5277262371314806
0.9992171773801963,-0.5821444012122939,8.02424638516915,-0.015492833382698646,-0.008470763176944483,0.07181416875760656,0.46365306441121285,2.5441146358370217
0.9837243439974976,-0.5906151643892384,8.096060553926756,-0.015492833382698646,-0.008470763176944483,0.07181416875760656,0.4655496339067621,2.536950210710772
0.968231510614799,-0.599085927566183,8.167874722684363,-0.015492833382698646,-0.008470763176944483,0.07181416875760656,0.4671388633650499,2.5425527064352393
0.9527386772321003,-0.6075566907431275,8.23968889144197,-0.015492833382698646,-0.008470763176944483,0.07181416875760656,0.4619753606879836,2.5415030714149007
0.9372458438494016,-0.616027453920072,8.311503060199577,-0.015492833382698646,-0.008470763176944483,0.07181416875760656,0.46041504270859573,2.5379984402548947
0.9217530104667029,-0.6244982170970165,8.383317228957184,-0.015492833382698646,-0.008470763176944483,0.07181416875760656,0.45622718814188423,2.541516867043561
0.9062601770840042,-0.632968980273961,8.45513139771479,-0.015492833382698646,-0.008470763176944483,0.07181416875760656,0.4541660619512928,2.5466393414485764
0.8907673437013055,-0.6414397434509055,8.526945566472397,-0.015492833382698646,-0.008470763176944483,0.07181416875760656,0.4508940532199515,2.559711551810757
0.8752745103186068,-0.64991050662785,8.598759735230004,-0.015492833382698646,-0.008470763176944483,0.07181416875760656,0.4555003078133734,2.559900339680808
0.8597816769359081,-0.6583812698047945,8.670573903987611,-0.015492833382698646,-0.008470763176944483,0.07181416875760656,0.44955729947708,2.554383702885089
0.8442888435532094,-0.666852032981739,8.742388072745218,-0.015492833382698646,-0.008470763176944483,0.07181416875760656,0.4473861522320062,2.5503194825532436
0.8287960101705107,-0.6753227961586835,8.814202241502825,-0.015492833382698646,-0.008470763176944483,0.07181416875760656,0.44461196603789366,2.5452264537354683
0.813303176787812,-0.683793559335628,8.886016410260432,-0.015492833382698646,-0.008470763176944483,0.07181416875760656,0.4337472390284701,2.563934089052945
0.7978103434051134,-0.6922643225125725,8.957830579018038,-0.015492833382698646,-0.008470763176944483,0.07181416875760656,0.43113244951263535,2.572270471380079
0.7823175100224147,-0.700735085689517,9.029644747775645,-0.015492833382698646,-0.008470763176944483,0.07181416875760656,0.4379212322931214,2.5725737322825952
0.766824676639716,-0.7092058488664615,9.101458916533252,-0.015492833382698646,-0.008470763176944483,0.07181416875760656,0.43367148737995365,2.569745241480455
0.7513318432570173,-0.717676612043406,9.173273085290859,-0.015492833382698646,-0.008470763176944483,0.07181416875760656,0.44392322120580635,2.5603026445594006
0.7358390098743186,-0.7261473752203506,9.245087254048466,-0.015492833382698646,-0.008470763176944483,0.07181416875760656,0.45171395857247953,2.558855022358119
0.7203461764916199,-0.7346181383972951,9.316901422806072,-0.015492833382698646,-0.008470763176944483,0.07181416875760656,0.4446842173687758,2.555600914916024
0.7064078725273533,-0.7340126556287286,9.31154235437156,-0.013938303964266596,0.0006054827685663857,-0.005359068434511987,0.4429862000534594,2.56067786951137
0.6924695685630866,-0.7334071728601622,9.306183285937049,-0.013938303964266596,0.0006054827685663857,-0.005359068434511987,0.44624877094510457,2.5697456498420377
0.67853126459882,-0.7328016900915958,9.300824217502537,-0.013938303964266596,0.0006054827685663857,-0.005359068434511987,0.45013626312481564,2.5647696047141673
0.6645929606345533,-0.7321962073230294,9.295465149068026,-0.013938303964266596,0.0006054827685663857,-0.005359068434511987,0.4416744084178659,2.553432890547775
0.6506546566702867,-0.731590724554463,9.290106080633514,-0.013938303964266596,0.0006054827685663857,-0.005359068434511987,0.4466508860151591,2.552101158020489
0.63671635270602,-0.7309852417858965,9.284747012199002,-0.013938303964266596,0.0006054827685663857,-0.005359068434511987,0.43756498240603103,2.540675025208639
0.6227780487417534,-0.7303797590173301,9.27938794376449,-0.013938303964266596,0.0006054827685663857,-0.005359068434511987,0.44042852529280085,2.536085551156732
0.6088397447774867,-0.7297742762487637,9.274028875329979,-0.013938303964266596,0.0006054827685663857,-0.005359068434511987,0.4415349766590879,2.540604716077534
0.59490144081322,-0.7291687934801973,9.268669806895467,-0.013938303964266596,0.0006054827685663857,-0.005359068434511987,0.44497699473477514,2.5418041581347186
0.5809631368489534,-0.7285633107116308,9.263310738460955,-0.013938303964266596,0.0006054827685663857,-0.005359068434511987,0.43912525306114114,2.5453907540271827
0.5670248328846867,-0.7279578279430644,9.257951670026443,-0.013938303964266596,0.0006054827685663857,-0.005359068434511987,0.4378329896227913,2.5457304131820537
0.5530865289204201,-0.727352345174498,9.252592601591932,-0.013938303964266596,0.0006054827685663857,-0.005359068434511987,0.43943888282472243,2.539633920513682
0.5391482249561534,-0.7267468624059316,9.24723353315742,-0.013938303964266596,0.0006054827685663857,-0.005359068434511987,0.43970052399246673,2.5392562777940384
0.5252099209918868,-0.7261413796373651,9.241874464722908,-0.013938303964266596,0.0006054827685663857,-0.005359068434511987,0.4389002329290025,2.5262284236678174
0.5112716170276201,-0.7255358968687987,9.236515396288397,-0.013938303964266596,0.0006054827685663857,-0.005359068434511987,0.4443899148429384,2.5257177926857706
0.49733331306335354,-0.7249304141002323,9.231156327853885,-0.013938303964266596,0.0006054827685663857,-0.005359068434511987,0.44314479737720835,2.522774325096049
0.48339500909908695,-0.7243249313316659,9.225797259419373,-0.013938303964266596,0.0006054827685663857,-0.005359068434511987,0.4353236328908605,2.5146901880463237
0.46945670513482035,-0.7237194485630994,9.220438190984861,-0.013938303964266596,0.0006054827685663857,-0.005359068434511987,0.44103070377270465,2.515647745661806
0.45551840117055376,-0.723113965794533,9.21507912255035,-0.013938303964266596,0.0006054827685663857,-0.005359068434511987,0.44134582498348396,2.5146090137709853
0.44158009720628716,-0.7225084830259666,9.209720054115838,-0.013938303964266596,0.0006054827685663857,-0.005359068434511987,0.43372231076598106,2.5205854845086053
0.42764179324202056,-0.7219030002574002,9.204360985681326,-0.013938303964266596,0.0006054827685663857,-0.005359068434511987,0.43779875338606417,2.508642880722227
0.41370348927775397,-0.7212975174888338,9.199001917246814,-0.013938303964266596,0.0006054827685663857,-0.005359068434511987,0.43735159881424834,2.5075731900300235
0.39976518531348737,-0.7206920347202673,9.193642848812303,-0.013938303964266596,0.0006054827685663857,-0.005359068434511987,0.43065967700695224,2.5077691869057626
0.3858268813492208,-0.7200865519517009,9.188283780377791,-0.013938303964266596,0.0006054827685663857,-0.005359068434511987,0.43383608862255113,2.5198409520574163
0.3718885773849542,-0.7194810691831345,9.18292471194328,-0.013938303964266596,0.0006054827685663857,-0.005359068434511987,0.4378239629409132,2.5256635643359377
0.3579502734206876,-0.7188755864145681,9.177565643508768,-0.013938303964266596,0.0006054827685663857,-0.005359068434511987,0.4382957587231966,2.518233391149288
0.344011969456421,-0.7182701036460016,9.172206575074256,-0.013938303964266596,0.0006054827685663857,-0.005359068434511987,0.4416681978212551,2.522237287607942
0.40194133643656915,-0.7107105722889251,9.15891492002058,0.05792936698014815,0.007559531357076564,-0.013291655053675328,0.44702364311894105,2.5110802496182623
0.4598707034167173,-0.7031510409318485,9.145623264966904,0.05792936698014815,0.007559531357076564,-0.013291655053675328,0.43863399158658184,2.4977504740782064
0.5178000703968655,-0.695591509574772,9.132331609913228,0.05792936698014815,0.007559531357076564,-0.013291655053675328,0.44038596318809503,2.499208994840721
0.5757294373770137,-0.6880319782176955,9.119039954859552,0.05792936698014815,0.007559531357076564,-0.013291655053675328,0.4360603587479461,2.5009794156872593
0.6336588043571618,-0.6804724468606189,9.105748299805876,0.05792936698014815,0.007559531357076564,-0.013291655053675328,0.4295825339653923,2.514410722368461
0.69158817133731,-0.6729129155035424,9.0924566447522,0.05792936698014815,0.007559531357076564,-0.013291655053675328,0.42815589939145493,2.5060176239896665
0.7495175383174582,-0.6653533841464658,9.079164989698524,0.05792936698014815,0.007559531357076564,-0.013291655053675328,0.42393953427441594,2.515251359185596
0.8074469052976063,-0.6577938527893893,9.065873334644849,0.05792936698014815,0.007559531357076564,-0.013291655053675328,0.4183118909388791,2.5186971327886174
0.8653762722777545,-0.6502343214323127,9.052581679591173,0.05792936698014815,0.007559531357076564,-0.013291655053675328,0.4223915520472933,2.5029284105514087
0.9233056392579027,-0.6426747900752362,9.039290024537497,0.05792936698014815,0.007559531357076564,-0.013291655053675328,0.4169389033526357,2.5055298059556947
0.9812350062380508,-0.6351152587181597,9.02599836948382,0.05792936698014815,0.007559531357076564,-0.013291655053675328,0.420717904842408,2.5060675552101266
1.039164373218199,-0.6275557273610831,9.012706714430145,0.05792936698014815,0.007559531357076564,-0.013291655053675328,0.42233023944157283,2.5037254149521173
1.0970937401983472,-0.6199961960040066,8.999415059376469,0.05792936698014815,0.007559531357076564,-0.013291655053675328,0.4230465813584054,2.5122524206914822
1.1550231071784953,-0.61243666464693,8.986123404322793,0.05792936698014815,0.007559531357076564,-0.013291655053675328,0.41292737270306434,2.502037132628552
1.2129524741586435,-0.6048771332898535,8.972831749269117,0.05792936698014815,0.007559531357076564,-0.013291655053675328,0.4176726441016382,2.495769863387433
1.2708818411387917,-0.5973176019327769,8.959540094215441,0.05792936698014815,0.007559531357076564,-0.013291655053675328,0.4150572599276348,2.514475978517511
1.3288112081189398,-0.5897580705757004,8.946248439161765,0.05792936698014815,0.007559531357076564,-0.013291655053675328,0.4186819518109063,2.501856048364816
1.386740575099088,-0.5821985392186239,8.93295678410809,0.05792936698014815,0.007559531357076564,-0.013291655053675328,0.42468423773524133,2.503567782343053
1.4446699420792362,-0.5746390078615473,8.919665129054414,0.05792936698014815,0.007559531357076564,-0.013291655053675328,0.4129123045529556,2.4917519645604593
1.5025993090593843,-0.5670794765044708,8.906373474000738,0.05792936698014815,0.007559531357076564,-0.013291655053675328,0.4128522627545076,2.4748104016166375
1.5605286760395325,-0.5595199451473942,8.893081818947062,0.05792936698014815,0.007559531357076564,-0.013291655053675328,0.4105717377175501,2.4756324943768595
1.6184580430196807,-0.5519604137903177,8.879790163893386,0.05792936698014815,0.007559531357076564,-0.013291655053675328,0.412815616389994,2.4644626198145243
1.6763874099998288,-0.5444008824332411,8.86649850883971,0.05792936698014815,0.007559531357076564,-0.013291655053675328,0.41180656644605657,2.470604736133428
1.734316776979977,-0.5368413510761646,8.853206853786034,0.05792936698014815,0.007559531357076564,-0.013291655053675328,0.4049941791646876,2.4671537724017276
1.7922461439601252,-0.529281819719088,8.839915198732358,0.05792936698014815,0.007559531357076564,-0.013291655053675328,0.4024859281388439,2.4694089128681895
1.8501755109402733,-0.5217222883620115,8.826623543678682,0.05792936698014815,0.007559531357076564,-0.013291655053675328,0.39406583887728425,2.4788957949197616
1.9081048779204215,-0.514162757004935,8.813331888625006,0.05792936698014815,0.007559531357076564,-0.013291655053675328,0.40370051677425567,2.473480273433254
1.9660342449005697,-0.5066032256478584,8.80004023357133,0.05792936698014815,0.007559531357076564,-0.013291655053675328,0.4029042421651705,2.461941525273205
2.023963611880718,-0.4990436942907819,8.786748578517654,0.05792936698014815,0.007559531357076564,-0.013291655053675328,0.4017033532633345,2.4562461504819444
2.081892978860866,-0.49148416293370534,8.773456923463979,0.05792936698014815,0.007559531357076564,-0.013291655053675328,0.39925175607959784,2.4615731277336867
2.139822345841014,-0.4839246315766288,8.760165268410303,0.05792936698014815,0.007559531357076564,-0.013291655053675328,0.3955433767834146,2.4705769933714032
2.1977517128211623,-0.47636510021955225,8.746873613356627,0.05792936698014815,0.007559531357076564,-0.013291655053675328,0.4028655816211975,2.462698459507887
2.2556810798013105,-0.4688055688624757,8.73358195830295,0.05792936698014815,0.007559531357076564,-0.013291655053675328,0.3916942572701783,2.478739094978686
2.3136104467814587,-0.46124603750539916,8.720290303249275,0.05792936698014815,0.007559531357076564,-0.013291655053675328,0.39629433421470744,2.491232062014177
2.371539813761607,-0.4536865061483226,8.706998648195599,0.05792936698014815,0.007559531357076564,-0.013291655053675328,0.39982549674674406,2.485897089952381
2.343376523519728,-0.44335463979226175,8.77725837567938,-0.02816329024187863,0.010331866356060879,0.07025972748378148,0.3915766425313578,2.4966961954180866
2.3152132332778494,-0.4330227734362009,8.847518103163162,-0.02816329024187863,0.010331866356060879,0.07025972748378148,0.3911184163336444,2.4946563254795238
2.2870499430359708,-0.42269090708014,8.917777830646944,-0.02816329024187863,0.010331866356060879,0.07025972748378148,0.39260602877583844,2.4969367872697985
2.258886652794092,-0.41235904072407914,8.988037558130726,-0.02816329024187863,0.010331866356060879,0.07025972748378148,0.3941873458582543,2.467554927210596
2.2307233625522134,-0.40202717436801827,9.058297285614508,-0.02816329024187863,0.010331866356060879,0.07025972748378148,0.39736677788432495,2.46952865716953
2.2025600723103347,-0.3916953080119574,9.12855701309829,-0.02816329024187863,0.010331866356060879,0.07025972748378148,0.40138223035100395,2.489402686050337
2.174396782068456,-0.38136344165589653,9.198816740582071,-0.02816329024187863,0.010331866356060879,0.07025972748378148,0.40052764652087064,2.48916383528015
2.1462334918265773,-0.37103157529983566,9.269076468065853,-0.02816329024187863,0.010331866356060879,0.07025972748378148,0.3957729301222951,2.4861165331389605
2.1180702015846986,-0.3606997089437748,9.339336195549635,-0.02816329024187863,0.010331866356060879,0.07025972748378148,0.3822103418659701,2.484351412053114
2.08990691134282,-0.3503678425877139,9.409595923033416,-0.02816329024187863,0.010331866356060879,0.07025972748378148,0.380968671352169,2.4850701605302663
2.0617436211009412,-0.34003597623165305,9.479855650517198,-0.02816329024187863,0.010331866356060879,0.07025972748378148,0.3823869856738786,2.484267382304945
2.0335803308590625,-0.3297041098755922,9.55011537800098,-0.02816329024187863,0.010331866356060879,0.07025972748378148,0.382642452930821,2.474152394118889
2.005417040617184,-0.3193722435195313,9.620375105484761,-0.02816329024187863,0.010331866356060879,0.07025972748378148,0.3819012931359374,2.48276994474366
1.9772537503753052,-0.30904037716347044,9.690634832968543,-0.02816329024187863,0.010331866356060879,0.07025972748378148,0.38502367653253766,2.492195067020327
1.9490904601334265,-0.29870851080740957,9.760894560452325,-0.02816329024187863,0.010331866356060879,0.07025972748378148,0.38412922700429136,2.488169625098891
1.9209271698915478,-0.2883766444513487,9.831154287936107,-0.02816329024187863,0.010331866356060879,0.07025972748378148,0.3829459153102776,2.5038377897431072
1.892763879649669,-0.2780447780952878,9.901414015419888,-0.02816329024187863,0.010331866356060879,0.07025972748378148,0.3792612626491413,2.5326073208590647
1.8646005894077904,-0.26771291173922696,9.97167374290367,-0.02816329024187863,0.010331866356060879,0.07025972748378148,0.37939973750693307,2.532968837456403
1.8576961154783909,-0.2540773876174783,9.912352543108156,-0.006904473929399452,0.013635524121748692,-0.05932119979551348,0.3755060925781591,2.529372339998431
1.8507916415489913,-0.24044186349572957,9.853031343312642,-0.006904473929399452,0.013635524121748692,-0.05932119979551348,0.3882177399114226,2.5173261975181753
1.8438871676195918,-0.22680633937398087,9.793710143517128,-0.006904473929399452,0.013635524121748692,-0.05932119979551348,0.3960509489040135,2.5170769838487668
1.8369826936901923,-0.21317081525223217,9.734388943721614,-0.006904473929399452,0.013635524121748692,-0.05932119979551348,0.39414450304313536,2.5334872755299935
1.8300782197607928,-0.19953529113048346,9.6750677439261,-0.006904473929399452,0.013635524121748692,-0.05932119979551348,0.3844332921790431,2.54192405293753
1.8231737458313932,-0.18589976700873476,9.615746544130586,-0.006904473929399452,0.013635524121748692,-0.05932119979551348,0.3831765153797703,2.5220028938804324
1.8162692719019937,-0.17226424288698605,9.556425344335072,-0.006904473929399452,0.013635524121748692,-0.05932119979551348,0.3840772975466678,2.5375072452274
1.8093647979725942,-0.15862871876523735,9.497104144539557,-0.006904473929399452,0.013635524121748692,-0.05932119979551348,0.3744588291477519,2.523841061015741
1.8024603240431947,-0.14499319464348864,9.437782944744043,-0.006904473929399452,0.013635524121748692,-0.05932119979551348,0.3734209102178055,2.5151782471200494
1.7955558501137951,-0.13135767052173994,9.37846174494853,-0.006904473929399452,0.013635524121748692,-0.05932119979551348,0.3696536645101588,2.4888605553076286
1.7886513761843956,-0.11772214639999125,9.319140545153015,-0.006904473929399452,0.013635524121748692,-0.05932119979551348,0.36154186101677754,2.499261626158959
1.781746902254996,-0.10408662227824256,9.259819345357501,-0.006904473929399452,0.013635524121748692,-0.05932119979551348,0.37038096397883036,2.509087024533829
1.7748424283255966,-0.09045109815649387,9.200498145561987,-0.006904473929399452,0.013635524121748692,-0.05932119979551348,0.36286677534435025,2.502157276086867
1.767937954396197,-0.07681557403474518,9.141176945766473,-0.006904473929399452,0.013635524121748692,-0.05932119979551348,0.36801323577867046,2.492517036833739
1.7610334804667975,-0.06318004991299649,9.081855745970959,-0.006904473929399452,0.013635524121748692,-0.05932119979551348,0.3628930179108929,2.4723743764299617
1.754129006537398,-0.049544525791247795,9.022534546175445,-0.006904473929399452,0.013635524121748692,-0.05932119979551348,0.36258800569841915,2.483588233533277
1.7472245326079985,-0.035909001669499105,8.96321334637993,-0.006904473929399452,0.013635524121748692,-0.05932119979551348,0.3645995065337595,2.495919549808859
1.740320058678599,-0.022273477547750414,8.903892146584417,-0.006904473929399452,0.013635524121748692,-0.05932119979551348,0.36242538713548994,2.4880823982064277
1.7334155847491994,-0.008637953426001722,8.844570946788902,-0.006904473929399452,0.013635524121748692,-0.05932119979551348,0.3534785901835049,2.487389634275723
1.7265111108198,0.00499757069574697,8.785249746993388,-0.006904473929399452,0.013635524121748692,-0.05932119979551348,0.3530516393307181,2.501383021419641
1.7196066368904004,0.018633094817495664,8.725928547197874,-0.006904473929399452,0.013635524121748692,-0.05932119979551348,0.3532807156224592,2.493542057931984
1.7127021629610009,0.032268618939244355,8.66660734740236,-0.006904473929399452,0.013635524121748692,-0.05932119979551348,0.3493223314034409,2.5069012168332114
1.7057976890316013,0.045904143060993045,8.607286147606846,-0.006904473929399452,0.013635524121748692,-0.05932119979551348,0.3471718648923416,2.5079250829196242
1.6988932151022018,0.059539667182741736,8.547964947811332,-0.006904473929399452,0.013635524121748692,-0.05932119979551348,0.3409919747609645,2.5015687512950118
1.6919887411728023,0.07317519130449043,8.488643748015818,-0.006904473929399452,0.013635524121748692,-0.05932119979551348,0.34776766813808613,2.4868919644516696
1.6850842672434028,0.08681071542623912,8.429322548220304,-0.006904473929399452,0.013635524121748692,-0.05932119979551348,0.34398488098419844,2.486381107721069
1.6781797933140032,0.10044623954798781,8.37000134842479,-0.006904473929399452,0.013635524121748692,-0.05932119979551348,0.3405943278842809,2.5059594676337182
1.6712753193846037,0.1140817636697365,8.310680148629276,-0.006904473929399452,0.013635524121748692,-0.05932119979551348,0.3418919782605826,2.501927301165006
1.6643708454552042,0.1277172877914852,8.251358948833762,-0.006904473929399452,0.013635524121748692,-0.05932119979551348,0.3372807653572425,2.506873273910288
1.6574663715258047,0.1413528119132339,8.192037749038247,-0.006904473929399452,0.013635524121748692,-0.05932119979551348,0.33529440958377005,2.5146983333081394
1.6505618975964051,0.1549883360349826,8.132716549242733,-0.006904473929399452,0.013635524121748692,-0.05932119979551348,0.33670362551607136,2.5238620580889295
1.6436574236670056,0.1686238601567313,8.07339534944722,-0.006904473929399452,0.013635524121748692,-0.05932119979551348,0.3354003492799641,2.508912192892942
1.636752949737606,0.18225938427848,8.014074149651705,-0.006904473929399452,0.013635524121748692,-0.05932119979551348,0.3414966327984872,2.4886357705984343
1.6298484758082066,0.19589490840022872,7.954752949856192,-0.006904473929399452,0.013635524121748692,-0.05932119979551348,0.3391269226332599,2.486811713952431
1.622944001878807,0.20953043252197742,7.895431750060679,-0.006904473929399452,0.013635524121748692,-0.05932119979551348,0.3339555318480883,2.4783496822846356
1.6160395279494075,0.22316595664372613,7.836110550265166,-0.006904473929399452,0.013635524121748692,-0.05932119979551348,0.3383139398470728,2.475899207660151
1.609135054020008,0.23680148076547483,7.776789350469652,-0.006904473929399452,0.013635524121748692,-0.05932119979551348,0.33445818948106776,2.4624319918235664
1.6022305800906085,0.25043700488722354,7.717468150674139,-0.006904473929399452,0.013635524121748692,-0.05932119979551348,0.33934937908979607,2.4762487415415664
1.595326106161209,0.2640725290089722,7.658146950878626,-0.006904473929399452,0.013635524121748692,-0.05932119979551348,0.34073560687132615,2.4819536809125173
1.5884216322318094,0.2777080531307209,7.598825751083113,-0.006904473929399452,0.013635524121748692,-0.05932119979551348,0.3429859984954366,2.4786383081022554
1.58151715830241,0.29134357725246957,7.5395045512875996,-0.006904473929399452,0.013635524121748692,-0.05932119979551348,0.34140476296754363,2.479824391691994
1.5746126843730104,0.30497910137421824,7.480183351492086,-0.006904473929399452,0.013635524121748692,-0.05932119979551348,0.34287685983949034,2.465770996194049
1.5677082104436109,0.3186146254959669,7.420862151696573,-0.006904473929399452,0.013635524121748692,-0.05932119979551348,0.3437339819411894,2.4532247700701966
1.5608037365142113,0.3322501496177156,7.36154095190106,-0.006904473929399452,0.013635524121748692,-0.05932119979551348,0.34609514148781545,2.4411336752036243
1.5538992625848118,0.34588567373946427,7.302219752105547,-0.006904473929399452,0.013635524121748692,-0.05932119979551348,0.34250384518794463,2.451099346277673
1.5469947886554123,0.35952119786121295,7.2428985523100335,-0.006904473929399452,0.013635524121748692,-0.05932119979551348,0.33666539009946284,2.455051362107497
1.5400903147260128,0.3731567219829616,7.18357735251452,-0.006904473929399452,0.013635524121748692,-0.05932119979551348,0.32949855840550873,2.463261547433413
1.5331858407966132,0.3867922461047103,7.124256152719007,-0.006904473929399452,0.013635524121748692,-0.05932119979551348,0.3270789749230219,2.4581408022016147
1.5262813668672137,0.400427770226459,7.064934952923494,-0.006904473929399452,0.013635524121748692,-0.05932119979551348,0.31990963170394826,2.4510513508260905
1.5193768929378142,0.41406329434820766,7.005613753127981,-0.006904473929399452,0.013635524121748692,-0.05932119979551348,0.3206761488963063,2.4515569659237313
1.5124724190084147,0.42769881846995633,6.9462925533324675,-0.006904473929399452,0.013635524121748692,-0.05932119979551348,0.317911723262805,2.456450438086795
1.5055679450790151,0.441334342591705,6.886971353536954,-0.006904473929399452,0.013635524121748692,-0.05932119979551348,0.3246899844611873,2.465048257898343
1.4986634711496156,0.4549698667134537,6.827650153741441,-0.006904473929399452,0.013635524121748692,-0.05932119979551348,0.3306918051162388,2.459864722986857
1.491758997220216,0.46860539083520236,6.768328953945928,-0.006904473929399452,0.013635524121748692,-0.05932119979551348,0.33210589133424606,2.4506927555713234
1.4848545232908166,0.48224091495695104,6.709007754150415,-0.006904473929399452,0.013635524121748692,-0.05932119979551348,0.33365087764298557,2.461051321363497
1.477950049361417,0.4958764390786997,6.6496865543549015,-0.006904473929399452,0.013635524121748692,-0.05932119979551348,0.3370566825402615,2.4535806812464336
1.4710455754320175,0.5095119632004484,6.590365354559388,-0.006904473929399452,0.013635524121748692,-0.05932119979551348,0.34208175892750636,2.4436628161919423
1.464141101502618,0.5231474873221972,6.531044154763875,-0.006904473929399452,0.013635524121748692,-0.05932119979551348,0.3359739633955297,2.4468898323850197
1.4572366275732185,0.5367830114439459,6.471722954968362,-0.006904473929399452,0.013635524121748692,-0.05932119979551348,0.3362910379849613,2.453319532218911
1.450332153643819,0.5504185355656946,6.412401755172849,-0.006904473929399452,0.013635524121748692,-0.05932119979551348,0.32610381943022065,2.4605734668686012
1.4434276797144194,0.5640540596874434,6.3530805553773355,-0.006904473929399452,0.013635524121748692,-0.05932119979551348,0.32655801005037005,2.4605777850490997
1.43652320578502,0.5776895838091921,6.293759355581822,-0.006904473929399452,0.013635524121748692,-0.05932119979551348,0.32704250231601706,2.4374140356107827
1.4296187318556204,0.5913251079309408,6.234438155786309,-0.006904473929399452,0.013635524121748692,-0.05932119979551348,0.32754055020919653,2.4427127260846166
1.4227142579262209,0.6049606320526896,6.175116955990796,-0.006904473929399452,0.013635524121748692,-0.05932119979551348,0.3290054636247201,2.4648369000791286
1.4158097839968213,0.6185961561744383,6.115795756195283,-0.006904473929399452,0.013635524121748692,-0.05932119979551348,0.3297243151554551,2.4772226159213986
1.4089053100674218,0.632231680296187,6.0564745563997695,-0.006904473929399452,0.013635524121748692,-0.05932119979551348,0.332940071754131,2.4831226576394276
1.4020008361380223,0.6458672044179358,5.997153356604256,-0.006904473929399452,0.013635524121748692,-0.05932119979551348,0.33984406629689723,2.4930380858074197
1.3950963622086228,0.6595027285396845,5.937832156808743,-0.006904473929399452,0.013635524121748692,-0.05932119979551348,0.3336744516564436,2.4769273194989716
1.3881918882792232,0.6731382526614332,5.87851095701323,-0.006904473929399452,0.013635524121748692,-0.05932119979551348,0.33073352826436186,2.4743040391381146
1.3812874143498237,0.686773776783182,5.819189757217717,-0.006904473929399452,0.013635524121748692,-0.05932119979551348,0.33124796483533814,2.451813070620607
1.3743829404204242,0.7004093009049307,5.7598685574222035,-0.006904473929399452,0.013635524121748692,-0.05932119979551348,0.3341589744126703,2.4284787513070096
1.3201991801698443,0.7004893752778073,5.822559705527659,-0.05418376025058002,8.00743728765588e-05,0.0626911481054554,0.33522883111635665,2.4113047964557595
1.2660154199192644,0.7005694496506839,5.885250853633114,-0.05418376025058002,8.00743728765588e-05,0.0626911481054554,0.33793689108608427,2.397960712174502
1.2118316596686844,0.7006495240235605,5.947942001738569,-0.05418376025058002,8.00743728765588e-05,0.0626911481054554,0.3325666352994048,2.399334755695315
1.1576478994181045,0.7007295983964371,6.010633149844024,-0.05418376025058002,8.00743728765588e-05,0.0626911481054554,0.336345391279266,2.4048780650293495
1.1034641391675246,0.7008096727693137,6.073324297949479,-0.05418376025058002,8.00743728765588e-05,0.0626911481054554,0.34026072407949903,2.4099884278871166
1.0492803789169447,0.7008897471421903,6.136015446054934,-0.05418376025058002,8.00743728765588e-05,0.0626911481054554,0.33858258452250745,2.4030947411511323
1.0409692651053981,0.7121540904835153,6.082222904593667,-0.008311113811546542,0.011264343341325027,-0.053792541461266316,0.33193120544447396,2.397357167648771
1.0326581512938515,0.7234184338248403,6.028430363132401,-0.008311113811546542,0.011264343341325027,-0.053792541461266316,0.32513072395198406,2.39232703236416
1.024347037482305,0.7346827771661653,5.974637821671134,-0.008311113811546542,0.011264343341325027,-0.053792541461266316,0.31464534985812886,2.3930388705937062
1.0160359236707583,0.7459471205074902,5.920845280209868,-0.008311113811546542,0.011264343341325027,-0.053792541461266316,0.3081437879972171,2.3734589033607367
1.0077248098592118,0.7572114638488152,5.867052738748601,-0.008311113811546542,0.011264343341325027,-0.053792541461266316,0.31324454978014754,2.3748763262968158
0.9994136960476652,0.7684758071901402,5.813260197287335,-0.008311113811546542,0.011264343341325027,-0.053792541461266316,0.3068611740432701,2.3848472787203323
0.9911025822361186,0.7797401505314652,5.759467655826068,-0.008311113811546542,0.011264343341325027,-0.053792541461266316,0.3051291321988092,2.389542259084084
0.982791468424572,0.7910044938727901,5.7056751143648015,-0.008311113811546542,0.011264343341325027,-0.053792541461266316,0.30716675314818376,2.4023139153344593
0.9744803546130254,0.8022688372141151,5.651882572903535,-0.008311113811546542,0.011264343341325027,-0.053792541461266316,0.30788993838874085,2.403313323930839
0.9661692408014788,0.8135331805554401,5.598090031442268,-0.008311113811546542,0.011264343341325027,-0.053792541461266316,0.29967294564921704,2.3963356955243067
0.9578581269899322,0.8247975238967651,5.544297489981002,-0.008311113811546542,0.011264343341325027,-0.053792541461266316,0.2928785270067535,2.3950738529111546
0.9495470131783856,0.8360618672380901,5.490504948519735,-0.008311113811546542,0.011264343341325027,-0.053792541461266316,0.2834615903792939,2.3874962655758454
0.941235899366839,0.847326210579415,5.436712407058469,-0.008311113811546542,0.011264343341325027,-0.053792541461266316,0.2807448185358537,2.3862536453806378
0.9329247855552925,0.85859055392074,5.382919865597202,-0.008311113811546542,0.011264343341325027,-0.053792541461266316,0.27998124034056804,2.3990069938818745
0.9246136717437459,0.869854897262065,5.329127324135936,-0.008311113811546542,0.011264343341325027,-0.053792541461266316,0.27319674842289854,2.403474585309258
0.9163025579321993,0.88111924060339,5.275334782674669,-0.008311113811546542,0.011264343341325027,-0.053792541461266316,0.2631319341149112,2.4055617492155172
0.9079914441206527,0.892383583944715,5.2215422412134025,-0.008311113811546542,0.011264343341325027,-0.053792541461266316,0.2638554866535291,2.4199400300007694
0.8996803303091061,0.9036479272860399,5.167749699752136,-0.008311113811546542,0.011264343341325027,-0.053792541461266316,0.2633756157492498,2.40439276373262
0.8913692164975595,0.9149122706273649,5.113957158290869,-0.008311113811546542,0.011264343341325027,-0.053792541461266316,0.26321370932534893,2.4170878834918157
0.8830581026860129,0.9261766139686899,5.060164616829603,-0.008311113811546542,0.011264343341325027,-0.053792541461266316,0.2654420194408444,2.417233156261284
0.8747469888744663,0.9374409573100149,5.006372075368336,-0.008311113811546542,0.011264343341325027,-0.053792541461266316,0.25534027427480616,2.412835882804617
0.8664358750629197,0.9487053006513398,4.95257953390707,-0.008311113811546542,0.011264343341325027,-0.053792541461266316,0.24816287085650954,2.404472398981932
0.8581247612513732,0.9599696439926648,4.898786992445803,-0.008311113811546542,0.011264343341325027,-0.053792541461266316,0.24430558615581943,2.4105201026796528
0.8498136474398266,0.9712339873339898,4.844994450984537,-0.008311113811546542,0.011264343341325027,-0.053792541461266316,0.25123771860958893,2.4066814686035376
0.84150253362828,0.9824983306753148,4.79120190952327,-0.008311113811546542,0.011264343341325027,-0.053792541461266316,0.25473300838515694,2.3755001110358056
0.8331914198167334,0.9937626740166398,4.7374093680620035,-0.008311113811546542,0.011264343341325027,-0.053792541461266316,0.25328891432655065,2.377440333260914
0.8041437641489669,1.004434533768275,4.669282676715625,-0.029047655667766504,0.010671859751635196,-0.06812669134637907,0.252444223450026,2.3649831595061683
0.7750961084812005,1.01510639351991,4.601155985369246,-0.029047655667766504,0.010671859751635196,-0.06812669134637907,0.24893550938529133,2.371879310210755
0.746048452813434,1.0257782532715451,4.533029294022867,-0.029047655667766504,0.010671859751635196,-0.06812669134637907,0.24817838536783504,2.3829632087869452
0.7170007971456676,1.0364501130231802,4.464902602676489,-0.029047655667766504,0.010671859751635196,-0.06812669134637907,0.2511884856577039,2.3771609312159234
0.6879531414779011,1.0471219727748153,4.39677591133011,-0.029047655667766504,0.010671859751635196,-0.06812669134637907,0.2511884856577039,2.3785411198783053
0.6589054858101346,1.0577938325264504,4.328649219983731,-0.029047655667766504,0.010671859751635196,-0.06812669134637907,0.2511884856577039,2.374070532896616
0.6298578301423682,1.0684656922780855,4.2605225286373525,-0.029047655667766504,0.010671859751635196,-0.06812669134637907,0.25798485082925493,2.3700338923506625
0.6008101744746017,1.0791375520297206,4.192395837290974,-0.029047655667766504,0.010671859751635196,-0.06812669134637907,0.2566286679405032,2.367180223192216
0.5717625188068353,1.0898094117813557,4.124269145944595,-0.029047655667766504,0.010671859751635196,-0.06812669134637907,0.2566286679405032,2.3629860510709735
0.5427148631390688,1.1004812715329908,4.056142454598216,-0.029047655667766504,0.010671859751635196,-0.06812669134637907,0.2769787167040691,2.3684054855832435
0.5136672074713023,1.111153131284626,3.988015763251837,-0.029047655667766504,0.010671859751635196,-0.06812669134637907,0.29123325012982637,2.363387538651039
0.48461955180353583,1.121824991036261,3.919889071905458,-0.029047655667766504,0.010671859751635196,-0.06812669134637907,0.29123325012982637,2.379020518789678
0.4555718961357693,1.132496850787896,3.851762380559079,-0.029047655667766504,0.010671859751635196,-0.06812669134637907,0.2943293659345699,2.3816827426959883
0.4265242404680028,1.1431687105395312,3.7836356892126997,-0.029047655667766504,0.010671859751635196,-0.06812669134637907,0.2943293659345699,2.380739765436827
0.3974765848002363,1.1538405702911663,3.7155089978663205,-0.029047655667766504,0.010671859751635196,-0.06812669134637907,0.3036980011312379,2.377923347083715
0.3684289291324698,1.1645124300428014,3.6473823065199413,-0.029047655667766504,0.010671859751635196,-0.06812669134637907,0.3103486201031885,2.384789566422348
0.33938127346470326,1.1751842897944365,3.579255615173562,-0.029047655667766504,0.010671859751635196,-0.06812669134637907,0.3035035952145355,2.3911144373367343
0.31033361779693674,1.1858561495460715,3.511128923827183,-0.029047655667766504,0.010671859751635196,-0.06812669134637907,0.3108157102168539,2.3860841240801314
0.28128596212917023,1.1965280092977066,3.443002232480804,-0.029047655667766504,0.010671859751635196,-0.06812669134637907,0.3212608827500782,2.397979753905493
0.2522383064614037,1.2071998690493417,3.3748755411344247,-0.029047655667766504,0.010671859751635196,-0.06812669134637907,0.3160778249567613,2.4154693567399184
0.2231906507936372,1.2178717288009768,3.3067488497880455,-0.029047655667766504,0.010671859751635196,-0.06812669134637907,0.32158907214067,2.4293455869491187
0.1941429951258707,1.228543588552612,3.2386221584416663,-0.029047655667766504,0.010671859751635196,-0.06812669134637907,0.32839934138137544,2.4137590534455207
0.16509533945810417,1.239215448304247,3.170495467095287,-0.029047655667766504,0.010671859751635196,-0.06812669134637907,0.3436166904885485,2.4239590131175586
0.13604768379033766,1.249887308055882,3.102368775748908,-0.029047655667766504,0.010671859751635196,-0.06812669134637907,0.3478727822912806,2.435404195533942
0.10700002812257116,1.2605591678075172,3.034242084402529,-0.029047655667766504,0.010671859751635196,-0.06812669134637907,0.3703669737634809,2.4498851309684078
0.07795237245480466,1.2712310275591523,2.9661153930561497,-0.029047655667766504,0.010671859751635196,-0.06812669134637907,0.3703669737634809,2.44397960765569
0.04890471678703816,1.2819028873107874,2.8979887017097705,-0.029047655667766504,0.010671859751635196,-0.06812669134637907,0.37392149122109986,2.454274468711498
0.019857061119271654,1.2925747470624225,2.8298620103633914,-0.029047655667766504,0.010671859751635196,-0.06812669134637907,0.3769901841464356,2.479085337902641
-0.00919059454849485,1.3032466068140576,2.761735319017012,-0.029047655667766504,0.010671859751635196,-0.06812669134637907,0.3769901841464356,2.4701886616075384
-0.03823825021626136,1.3139184665656927,2.693608627670633,-0.029047655667766504,0.010671859751635196,-0.06812669134637907,0.3895713607074866,2.4747022225149427
-0.06728590588402786,1.3245903263173278,2.625481936324254,-0.029047655667766504,0.010671859751635196,-0.06812669134637907,0.40937188699754096,2.468881922072213
-0.09633356155179436,1.3352621860689629,2.5573552449778747,-0.029047655667766504,0.010671859751635196,-0.06812669134637907,0.4038841543424634,2.4668694526014305
-0.12538121721956086,1.345934045820598,2.4892285536314955,-0.029047655667766504,0.010671859751635196,-0.06812669134637907,0.4038841543424634,2.4603894833308044
-0.15442887288732737,1.356605905572233,2.4211018622851164,-0.029047655667766504,0.010671859751635196,-0.06812669134637907,0.41656450159254726,2.4662011201290293
-0.1834765285550939,1.3672777653238681,2.352975170938737,-0.029047655667766504,0.010671859751635196,-0.06812669134637907,0.41656450159254726,2.466582912751266
-0.2125241842228604,1.3779496250755032,2.284848479592358,-0.029047655667766504,0.010671859751635196,-0.06812669134637907,0.4178735838246756,2.4636328413488626
-0.24157183989062692,1.3886214848271383,2.216721788245979,-0.029047655667766504,0.010671859751635196,-0.06812669134637907,0.4156436688360675,2.4575247537728826
-0.27061949555839343,1.3992933445787734,2.1485950968995997,-0.029047655667766504,0.010671859751635196,-0.06812669134637907,0.4269843548785163,2.4641814837972253
-0.29966715122615994,1.4099652043304085,2.0804684055532205,-0.029047655667766504,0.010671859751635196,-0.06812669134637907,0.43810077094488953,2.442427752212916
-0.32871480689392646,1.4206370640820436,2.0123417142068414,-0.029047655667766504,0.010671859751635196,-0.06812669134637907,0.44032331120498597,2.427711809909353
-0.357762462561693,1.4313089238336787,1.9442150228604622,-0.029047655667766504,0.010671859751635196,-0.06812669134637907,0.4443368000251215,2.4267610306998963
-0.3868101182294595,1.4419807835853138,1.876088331514083,-0.029047655667766504,0.010671859751635196,-0.06812669134637907,0.4560544444327251,2.4320947455404296
-0.415857773897226,1.4526526433369489,1.8079616401677039,-0.029047655667766504,0.010671859751635196,-0.06812669134637907,0.46783045229481446,2.4305630607832693
-0.4449054295649925,1.463324503088584,1.7398349488213247,-0.029047655667766504,0.010671859751635196,-0.06812669134637907,0.46642380089271285,2.4380259514249043
-0.47395308523275903,1.473996362840219,1.6717082574749456,-0.029047655667766504,0.010671859751635196,-0.06812669134637907,0.5069146029373058,2.446477038958595
-0.5030007409005255,1.4846682225918542,1.6035815661285664,-0.029047655667766504,0.010671859751635196,-0.06812669134637907,0.5005964589620175,2.431762763415621
-0.532048396568292,1.4953400823434893,1.5354548747821872,-0.029047655667766504,0.010671859751635196,-0.06812669134637907,0.49457289138047855,2.4508109085242222
-0.5610960522360584,1.5060119420951243,1.467328183435808,-0.029047655667766504,0.010671859751635196,-0.06812669134637907,0.5095745304972354,2.471263105816522
-0.5901437079038249,1.5166838018467594,1.399201492089429,-0.029047655667766504,0.010671859751635196,-0.06812669134637907,0.5099422443684888,2.477220644559772
-0.6191913635715913,1.5273556615983945,1.3310748007430497,-0.029047655667766504,0.010671859751635196,-0.06812669134637907,0.502127695030234,2.4858281052575104
-0.6482390192393578,1.5380275213500296,1.2629481093966706,-0.029047655667766504,0.010671859751635196,-0.06812669134637907,0.5234580209772525,2.4911127708108824
-0.6772866749071242,1.5486993811016647,1.1948214180502914,-0.029047655667766504,0.010671859751635196,-0.06812669134637907,0.5385114712049244,2.499226115583721
-0.7063343305748907,1.5593712408532998,1.1266947267039122,-0.029047655667766504,0.010671859751635196,-0.06812669134637907,0.5396281546856261,2.5004798787108875
-0.7353819862426572,1.570043100604935,1.058568035357533,-0.029047655667766504,0.010671859751635196,-0.06812669134637907,0.5760007624178684,2.502382404172587
-0.728054661154588,1.577413712598299,1.1311466360749416,0.007327325088069181,0.007370611993364077,0.07257860071740842,0.5760007624178684,2.499311699607305
-0.7207273360665187,1.584784324591663,1.20372523679235,0.007327325088069181,0.007370611993364077,0.07257860071740842,0.5729083866040995,2.496249187191072
-0.7134000109784495,1.5921549365850272,1.2763038375097586,0.007327325088069181,0.007370611993364077,0.07257860071740842,0.5647251363938185,2.500216619544725
-0.7060726858903803,1.5995255485783912,1.3488824382271671,0.007327325088069181,0.007370611993364077,0.07257860071740842,0.5641349462860856,2.5045954743932435
-0.6987453608023111,1.6068961605717553,1.4214610389445756,0.007327325088069181,0.007370611993364077,0.07257860071740842,0.579703121600786,2.506273193867064
-0.6914180357142419,1.6142667725651194,1.4940396396619842,0.007327325088069181,0.007370611993364077,0.07257860071740842,0.5985187171193209,2.505993033134906
-0.6840907106261727,1.6216373845584835,1.5666182403793927,0.007327325088069181,0.007370611993364077,0.07257860071740842,0.5985187171193209,2.4904212899425437
-0.6767633855381034,1.6290079965518476,1.6391968410968012,0.007327325088069181,0.007370611993364077,0.07257860071740842,0.5985187171193209,2.4885520575654763
-0.6694360604500342,1.6363786085452117,1.7117754418142097,0.007327325088069181,0.007370611993364077,0.07257860071740842,0.5985187171193209,2.4985331874567427
-0.662108735361965,1.6437492205385758,1.7843540425316182,0.007327325088069181,0.007370611993364077,0.07257860071740842,0.5985187171193209,2.486837376878898
-0.6547814102738958,1.6511198325319398,1.8569326432490267,0.007327325088069181,0.007370611993364077,0.07257860071740842,0.5985187171193209,2.4956680873843267
-0.6474540851858266,1.658490444525304,1.9295112439664353,0.007327325088069181,0.007370611993364077,0.07257860071740842,0.5985187171193209,2.5014384185714285
-0.6401267600977574,1.665861056518668,2.0020898446838435,0.007327325088069181,0.007370611993364077,0.07257860071740842,0.5985187171193209,2.4910783823805547
-0.6327994350096882,1.673231668512032,2.074668445401252,0.007327325088069181,0.007370611993364077,0.07257860071740842,0.5985187171193209,2.5215227681550627
-0.625472109921619,1.6806022805053962,2.14724704611866,0.007327325088069181,0.007370611993364077,0.07257860071740842,0.5985187171193209,2.5215227681550627
-0.6181447848335497,1.6879728924987603,2.2198256468360684,0.007327325088069181,0.007370611993364077,0.07257860071740842,0.5985187171193209,2.5215227681550627
-0.6108174597454805,1.6953435044921243,2.2924042475534767,0.007327325088069181,0.007370611993364077,0.07257860071740842,0.5869858957023972,2.5215227681550627
-0.6034901346574113,1.7027141164854884,2.364982848270885,0.007327325088069181,0.007370611993364077,0.07257860071740842,0.5859343009114385,2.5215227681550627
-0.5961628095693421,1.7100847284788525,2.4375614489882933,0.007327325088069181,0.007370611993364077,0.07257860071740842,0.5800818531990033,2.5215227681550627
-0.5888354844812729,1.7174553404722166,2.5101400497057016,0.007327325088069181,0.007370611993364077,0.07257860071740842,0.5818826607201829,2.5215227681550627
-0.5815081593932037,1.7248259524655807,2.58271865042311,0.007327325088069181,0.007370611993364077,0.07257860071740842,0.5849278243139967,2.5215227681550627
-0.5741808343051344,1.7321965644589448,2.655297251140518,0.007327325088069181,0.007370611993364077,0.07257860071740842,0.588161959758661,2.5215227681550627
-0.5668535092170652,1.7395671764523088,2.7278758518579265,0.007327325088069181,0.007370611993364077,0.07257860071740842,0.5939157203268391,2.5215227681550627
-0.559526184128996,1.746937788445673,2.8004544525753348,0.007327325088069181,0.007370611993364077,0.07257860071740842,0.5890633122922254,2.5215227681550627
-0.5521988590409268,1.754308400439037,2.873033053292743,0.007327325088069181,0.007370611993364077,0.07257860071740842,0.585814807624589,2.518941470723459
-0.5448715339528576,1.761679012432401,2.9456116540101513,0.007327325088069181,0.007370611993364077,0.07257860071740842,0.5865807855581402,2.532404308660291
-0.5375442088647884,1.7690496244257652,3.0181902547275596,0.007327325088069181,0.007370611993364077,0.07257860071740842,0.5787802074161427,2.5552031860827173
-0.5302168837767192,1.7764202364191293,3.090768855444968,0.007327325088069181,0.007370611993364077,0.07257860071740842,0.5794791851799929,2.5562680107926425
-0.52288955868865,1.7837908484124934,3.1633474561623762,0.007327325088069181,0.007370611993364077,0.07257860071740842,0.5755290395337925,2.5662199821084406
-0.5155622336005807,1.7911614604058574,3.2359260568797845,0.007327325088069181,0.007370611993364077,0.07257860071740842,0.5807286855420536,2.571446696030923
-0.5082349085125115,1.7985320723992215,3.308504657597193,0.007327325088069181,0.007370611993364077,0.07257860071740842,0.577813603528533,2.5714409266852187
-0.5009075834244423,1.8059026843925856,3.381083258314601,0.007327325088069181,0.007370611993364077,0.07257860071740842,0.58214909337797,2.5994318324457746
-0.49358025833637315,1.8132732963859497,3.4536618590320094,0.007327325088069181,0.007370611993364077,0.07257860071740842,0.5818907338908843,2.6252284613865666
-0.486252933248304,1.8206439083793138,3.5262404597494177,0.007327325088069181,0.007370611993364077,0.07257860071740842,0.5723039898440595,2.6391642492572434
-0.47892560816023483,1.8280145203726779,3.598819060466826,0.007327325088069181,0.007370611993364077,0.07257860071740842,0.5723656403629885,2.6370498085673395
-0.47159828307216567,1.835385132366042,3.6713976611842343,0.007327325088069181,0.007370611993364077,0.07257860071740842,0.5817706240757184,2.6305771300614005
-0.4642709579840965,1.842755744359406,3.7439762619016426,0.007327325088069181,0.007370611993364077,0.07257860071740842,0.5784634338143062,2.628457616989081
-0.45694363289602735,1.8501263563527701,3.816554862619051,0.007327325088069181,0.007370611993364077,0.07257860071740842,0.5768902412083484,2.629793691544058
-0.4496163078079582,1.8574969683461342,3.889133463336459,0.007327325088069181,0.007370611993364077,0.07257860071740842,0.5679585948380834,2.622291023129704
-0.44228898271988903,1.8648675803394983,3.9617120640538674,0.007327325088069181,0.007370611993364077,0.07257860071740842,0.5695406086196568,2.614028081489222
-0.4349616576318199,1.8722381923328624,4.034290664771276,0.007327325088069181,0.007370611993364077,0.07257860071740842,0.5760838646273839,2.6214546331127813
-0.4276343325437507,1.8796088043262265,4.106869265488684,0.007327325088069181,0.007370611993364077,0.07257860071740842,0.5786215245502679,2.617198348601108
-0.42030700745568156,1.8869794163195905,4.179447866206092,0.007327325088069181,0.007370611993364077,0.07257860071740842,0.5756009932907337,2.6067975424751166
-0.4129796823676124,1.8943500283129546,4.252026466923501,0.007327325088069181,0.007370611993364077,0.07257860071740842,0.5774331869717165,2.6244622225283187
-0.40565235727954324,1.9017206403063187,4.324605067640909,0.007327325088069181,0.007370611993364077,0.07257860071740842,0.5730957974793955,2.6370420209359016
-0.3983250321914741,1.9090912522996828,4.397183668358317,0.007327325088069181,0.007370611993364077,0.07257860071740842,0.5783756360793426,2.632085429059161
-0.3909977071034049,1.9164618642930469,4.4697622690757255,0.007327325088069181,0.007370611993364077,0.07257860071740842,0.5749532154051511,2.6175300564577664
-0.38367038201533576,1.923832476286411,4.542340869793134,0.007327325088069181,0.007370611993364077,0.07257860071740842,0.571367083818202,2.6051239235184758
-0.3763430569272666,1.931203088279775,4.614919470510542,0.007327325088069181,0.007370611993364077,0.07257860071740842,0.5720012638704318,2.6103707615331833
-0.36901573183919745,1.9385737002731391,4.68749807122795,0.007327325088069181,0.007370611993364077,0.07257860071740842,0.5737759015101691,2.5927841878000457
-0.3616884067511283,1.9459443122665032,4.760076671945359,0.007327325088069181,0.007370611993364077,0.07257860071740842,0.5646077039270623,2.5933569492960244
-0.35436108166305913,1.9533149242598673,4.832655272662767,0.007327325088069181,0.007370611993364077,0.07257860071740842,0.5663566306093822,2.5855247481517063
-0.36056487657029584,1.9601000937273403,4.838011102591712,-0.006203794907236723,0.006785169467473075,0.005355829928944983,0.557298273858209,2.5665311074409285
-0.36676867147753256,1.9668852631948133,4.843366932520657,-0.006203794907236723,0.006785169467473075,0.005355829928944983,0.5686433969401995,2.5609459390206317
-0.3729724663847693,1.9736704326622863,4.848722762449602,-0.006203794907236723,0.006785169467473075,0.005355829928944983,0.5676047948863328,2.55972751044822
-0.379176261292006,1.9804556021297592,4.8540785923785466,-0.006203794907236723,0.006785169467473075,0.005355829928944983,0.5684274477317155,2.5727246137571447
-0.3853800561992427,1.9872407715972322,4.8594344223074915,-0.006203794907236723,0.006785169467473075,0.005355829928944983,0.5665151843484688,2.5628760224381737
-0.3915838511064794,1.9940259410647052,4.864790252236436,-0.006203794907236723,0.006785169467473075,0.005355829928944983,0.5707790510808095,2.561545865279637
-0.39778764601371613,2.000811110532178,4.870146082165381,-0.006203794907236723,0.006785169467473075,0.005355829928944983,0.5645177252806638,2.562142098466723
-0.40399144092095285,2.0075962799996514,4.875501912094326,-0.006203794907236723,0.006785169467473075,0.005355829928944983,0.5693415796193051,2.5528304681114773
-0.41019523582818956,2.0143814494671246,4.880857742023271,-0.006203794907236723,0.006785169467473075,0.005355829928944983,0.5711023118971094,2.563432105802138
-0.4163990307354263,2.021166618934598,4.886213571952216,-0.006203794907236723,0.006785169467473075,0.005355829928944983,0.5646732420987873,2.574749707471936
-0.422602825642663,2.027951788402071,4.891569401881161,-0.006203794907236723,0.006785169467473075,0.005355829928944983,0.5645162156339424,2.5779282039209255
-0.4288066205498997,2.0347369578695442,4.896925231810106,-0.006203794907236723,0.006785169467473075,0.005355829928944983,0.5671128250802162,2.5880054744253673
-0.4350104154571364,2.0415221273370174,4.902281061739051,-0.006203794907236723,0.006785169467473075,0.005355829928944983,0.5616139587660866,2.606508465082158
-0.44121421036437314,2.0483072968044906,4.9076368916679955,-0.006203794907236723,0.006785169467473075,0.005355829928944983,0.5549002255692893,2.6070054920854435
-0.44741800527160985,2.055092466271964,4.9129927215969404,-0.006203794907236723,0.006785169467473075,0.005355829928944983,0.5473653138259301,2.6038447267508276
-0.45362180017884657,2.061877635739437,4.918348551525885,-0.006203794907236723,0.006785169467473075,0.005355829928944983,0.5462289521982964,2.6125890780924967
-0.4598255950860833,2.0686628052069103,4.92370438145483,-0.006203794907236723,0.006785169467473075,0.005355829928944983,0.538181202371743,2.5957187696656905
-0.46602938999332,2.0754479746743835,4.929060211383775,-0.006203794907236723,0.006785169467473075,0.005355829928944983,0.5301886811817114,2.5817286722253217
-0.4722331849005567,2.0822331441418567,4.93441604131272,-0.006203794907236723,0.006785169467473075,0.005355829928944983,0.5190697262458046,2.5887986825864293
-0.4784369798077934,2.08901831360933,4.939771871241665,-0.006203794907236723,0.006785169467473075,0.005355829928944983,0.5152945423593892,2.5705528636024955
-0.48464077471503014,2.095803483076803,4.94512770117061,-0.006203794907236723,0.006785169467473075,0.005355829928944983,0.5127296072670834,2.5618094130864977
-0.49084456962226686,2.1025886525442763,4.950483531099555,-0.006203794907236723,0.006785169467473075,0.005355829928944983,0.501807418839237,2.5531140437816457
-0.4970483645295036,2.1093738220117495,4.9558393610285,-0.006203794907236723,0.006785169467473075,0.005355829928944983,0.5130768089545271,2.56410384589629
-0.5032521594367403,2.1161589914792227,4.9611951909574445,-0.006203794907236723,0.006785169467473075,0.005355829928944983,0.5047217428389413,2.5734993105603454
-0.5094559543439771,2.122944160946696,4.9665510208863894,-0.006203794907236723,0.006785169467473075,0.005355829928944983,0.5003089496324887,2.5679993058218553
-0.5156597492512138,2.129729330414169,4.971906850815334,-0.006203794907236723,0.006785169467473075,0.005355829928944983,0.5045860866909329,2.5851921739091246
-0.5218635441584506,2.1365144998816423,4.977262680744279,-0.006203794907236723,0.006785169467473075,0.005355829928944983,0.5048595475584154,2.5813657663320426
-0.5280673390656874,2.1432996693491155,4.982618510673224,-0.006203794907236723,0.006785169467473075,0.005355829928944983,0.512519964353665,2.5738690449209503
-0.5342711339729241,2.1500848388165887,4.987974340602169,-0.006203794907236723,0.006785169467473075,0.005355829928944983,0.5157912857047066,2.562191372972468
-0.5404749288801609,2.156870008284062,4.993330170531114,-0.006203794907236723,0.006785169467473075,0.005355829928944983,0.5179644350051692,2.564274520464354
-0.5466787237873977,2.163655177751535,4.998686000460059,-0.006203794907236723,0.006785169467473075,0.005355829928944983,0.5198461123908655,2.5595115913772672
-0.5528825186946345,2.1704403472190084,5.004041830389004,-0.006203794907236723,0.006785169467473075,0.005355829928944983,0.5156829949714559,2.539972536335732
-0.5590863136018712,2.1772255166864816,5.009397660317949,-0.006203794907236723,0.006785169467473075,0.005355829928944983,0.515922536062932,2.5480587799645504
-0.565290108509108,2.1840106861539548,5.0147534902468935,-0.006203794907236723,0.006785169467473075,0.005355829928944983,0.5156100327033174,2.5395712110755055
-0.5840467292182964,2.1790334948052625,5.05018097272297,-0.018756620709188345,-0.00497719134869228,0.03542748247607637,0.517179038538094,2.54346229573803
-0.6028033499274847,2.1740563034565703,5.085608455199046,-0.018756620709188345,-0.00497719134869228,0.03542748247607637,0.5186849067254402,2.5478605788178537
-0.6215599706366731,2.169079112107878,5.121035937675122,-0.018756620709188345,-0.00497719134869228,0.03542748247607637,0.5205123957657808,2.546768495099881
-0.6403165913458615,2.164101920759186,5.156463420151199,-0.018756620709188345,-0.00497719134869228,0.03542748247607637,0.5214968053910285,2.546690019850251
-0.6590732120550499,2.1591247294104936,5.191890902627275,-0.018756620709188345,-0.00497719134869228,0.03542748247607637,0.5225362546455092,2.5569081513361334
-0.6778298327642382,2.1541475380618014,5.227318385103351,-0.018756620709188345,-0.00497719134869228,0.03542748247607637,0.5179546339167463,2.556842774067238
-0.6965864534734266,2.149170346713109,5.262745867579428,-0.018756620709188345,-0.00497719134869228,0.03542748247607637,0.5150219224253003,2.544626922060366
-0.715343074182615,2.144193155364417,5.298173350055504,-0.018756620709188345,-0.00497719134869228,0.03542748247607637,0.5162372041535747,2.521420694834586
-0.7340996948918034,2.1392159640157247,5.33360083253158,-0.018756620709188345,-0.00497719134869228,0.03542748247607637,0.5158504923511704,2.515377214348924
-0.7528563156009918,2.1342387726670324,5.3690283150076565,-0.018756620709188345,-0.00497719134869228,0.03542748247607637,0.5145172851930719,2.508187788459656
-0.7716129363101801,2.12926158131834,5.404455797483733,-0.018756620709188345,-0.00497719134869228,0.03542748247607637,0.5209058224479959,2.5083984378099933
-0.7903695570193685,2.124284389969648,5.439883279959809,-0.018756620709188345,-0.00497719134869228,0.03542748247607637,0.516715491589667,2.503541483291451
-0.8091261777285569,2.1193071986209557,5.475310762435885,-0.018756620709188345,-0.00497719134869228,0.03542748247607637,0.5218143815746005,2.4720265392935663
-0.8278827984377453,2.1143300072722635,5.510738244911962,-0.018756620709188345,-0.00497719134869228,0.03542748247607637,0.5226128822240417,2.477795038886782
-0.8466394191469336,2.1093528159235713,5.546165727388038,-0.018756620709188345,-0.00497719134869228,0.03542748247607637,0.5189727907610763,2.4916059539360567
-0.865396039856122,2.104375624574879,5.581593209864114,-0.018756620709188345,-0.00497719134869228,0.03542748247607637,0.5192373034823478,2.4966998473824717
-0.8841526605653104,2.099398433226187,5.617020692340191,-0.018756620709188345,-0.00497719134869228,0.03542748247607637,0.5158516348736648,2.498163124179512
-0.9029092812744988,2.0944212418774946,5.652448174816267,-0.018756620709188345,-0.00497719134869228,0.03542748247607637,0.5171483888416477,2.504397824625579
-0.9216659019836871,2.0894440505288023,5.687875657292343,-0.018756620709188345,-0.00497719134869228,0.03542748247607637,0.5211409091212583,2.4969598479251696
-0.9404225226928755,2.08446685918011,5.7233031397684195,-0.018756620709188345,-0.00497719134869228,0.03542748247607637,0.5137677438497962,2.486918168716006
-0.9591791434020639,2.079489667831418,5.758730622244496,-0.018756620709188345,-0.00497719134869228,0.03542748247607637,0.5048012699794752,2.48886940184099
-0.9779357641112523,2.0745124764827256,5.794158104720572,-0.018756620709188345,-0.00497719134869228,0.03542748247607637,0.5028127836068049,2.49184575518822
-0.9966923848204406,2.0695352851340334,5.829585587196648,-0.018756620709188345,-0.00497719134869228,0.03542748247607637,0.502516861525241,2.4799921456198266
-1.015449005529629,2.064558093785341,5.865013069672725,-0.018756620709188345,-0.00497719134869228,0.03542748247607637,0.5003177654618977,2.481588981579535
-1.0342056262388173,2.059580902436649,5.900440552148801,-0.018756620709188345,-0.00497719134869228,0.03542748247607637,0.5028380812435435,2.47251433149009
-1.0529622469480056,2.0546037110879567,5.935868034624877,-0.018756620709188345,-0.00497719134869228,0.03542748247607637,0.5016422441885984,2.4918542803643215
-1.0717188676571938,2.0496265197392645,5.971295517100954,-0.018756620709188345,-0.00497719134869228,0.03542748247607637,0.49332206257830896,2.4803571290633353
-1.090475488366382,2.0446493283905722,6.00672299957703,-0.018756620709188345,-0.00497719134869228,0.03542748247607637,0.4949625557249179,2.4826784614556
-1.1092321090755703,2.03967213704188,6.042150482053106,-0.018756620709188345,-0.00497719134869228,0.03542748247607637,0.4926226707665117,2.4877080420026583
-1.1279887297847586,2.0346949456931878,6.0775779645291825,-0.018756620709188345,-0.00497719134869228,0.03542748247607637,0.4923740689533738,2.4779601126747073
-1.1467453504939469,2.0297177543444955,6.113005447005259,-0.018756620709188345,-0.00497719134869228,0.03542748247607637,0.4897916268285353,2.4795955711934536
-1.1655019712031351,2.0247405629958033,6.148432929481335,-0.018756620709188345,-0.00497719134869228,0.03542748247607637,0.4936623779654799,2.4786266921969675
-1.1842585919123234,2.019763371647111,6.183860411957411,-0.018756620709188345,-0.00497719134869228,0.03542748247607637,0.49179077325044995,2.4763913292627957
-1.2030152126215117,2.014786180298419,6.219287894433488,-0.018756620709188345,-0.00497719134869228,0.03542748247607637,0.4891073032314481,2.4674337662432735
-1.2217718333307,2.0098089889497266,6.254715376909564,-0.018756620709188345,-0.00497719134869228,0.03542748247607637,0.48595660041957944,2.4626342444714218
-1.2405284540398882,2.0048317976010344,6.29014285938564,-0.018756620709188345,-0.00497719134869228,0.03542748247607637,0.477743146356917,2.452857947701156
-1.2592850747490765,1.9998546062523421,6.325570341861717,-0.018756620709188345,-0.00497719134869228,0.03542748247607637,0.4714612200787805,2.4542807509718965
-1.2780416954582647,1.99487741490365,6.360997824337793,-0.018756620709188345,-0.00497719134869228,0.03542748247607637,0.4636195775337697,2.4474283193411392
-1.296798316167453,1.9899002235549577,6.396425306813869,-0.018756620709188345,-0.00497719134869228,0.03542748247607637,0.46073600198221903,2.4587354215238557
-1.3155549368766413,1.9849230322062654,6.4318527892899455,-0.018756620709188345,-0.00497719134869228,0.03542748247607637,0.4481049306633271,2.4642133784541502
-1.3343115575858295,1.9799458408575732,6.467280271766022,-0.018756620709188345,-0.00497719134869228,0.03542748247607637,0.4480162619820901,2.478977502750581
-1.3530681782950178,1.974968649508881,6.502707754242098,-0.018756620709188345,-0.00497719134869228,0.03542748247607637,0.4410232337293462,2.4634298092714335
-1.371824799004206,1.9699914581601887,6.538135236718174,-0.018756620709188345,-0.00497719134869228,0.03542748247607637,0.4349463731050128,2.4716134651206096
-1.3905814197133943,1.9650142668114965,6.573562719194251,-0.018756620709188345,-0.00497719134869228,0.03542748247607637,0.42908341347901263,2.45149396376153
-1.3824516407449359,1.9704886779590252,6.565433411023748,0.008129778968458389,0.0054744111475287065,-0.008129308170502284,0.43455405488854515,2.4467049468534396
-1.3743218617764774,1.9759630891065538,6.557304102853245,0.008129778968458389,0.0054744111475287065,-0.008129308170502284,0.4266282291642429,2.4414608462031127
-1.366192082808019,1.9814375002540825,6.5491747946827426,0.008129778968458389,0.0054744111475287065,-0.008129308170502284,0.4301073340764132,2.443228670103576
-1.3580623038395605,1.9869119114016112,6.54104548651224,0.008129778968458389,0.0054744111475287065,-0.008129308170502284,0.4281622847829778,2.452733728436435
-1.349932524871102,1.9923863225491398,6.532916178341737,0.008129778968458389,0.0054744111475287065,-0.008129308170502284,0.42418508023023466,2.453263741306925
-1.3418027459026436,1.9978607336966685,6.524786870171234,0.008129778968458389,0.0054744111475287065,-0.008129308170502284,0.4293195855352495,2.455242094151724
-1.3336729669341851,2.0033351448441974,6.516657562000732,0.008129778968458389,0.0054744111475287065,-0.008129308170502284,0.42834392414482275,2.438698006065807
-1.3255431879657267,2.0088095559917263,6.508528253830229,0.008129778968458389,0.0054744111475287065,-0.008129308170502284,0.42714044040888577,2.4493473333401705
-1.3174134089972682,2.014283967139255,6.500398945659726,0.008129778968458389,0.0054744111475287065,-0.008129308170502284,0.42906251402978224,2.439479693678948
-1.3092836300288098,2.019758378286784,6.4922696374892235,0.008129778968458389,0.0054744111475287065,-0.008129308170502284,0.4316443080269459,2.4232454916818
-1.3011538510603513,2.025232789434313,6.484140329318721,0.008129778968458389,0.0054744111475287065,-0.008129308170502284,0.4303798141355743,2.431748178919016
-1.2930240720918929,2.030707200581842,6.476011021148218,0.008129778968458389,0.0054744111475287065,-0.008129308170502284,0.4310835766758548,2.40595008869907
-1.2848942931234344,2.0361816117293707,6.467881712977715,0.008129778968458389,0.0054744111475287065,-0.008129308170502284,0.41547865602907535,2.4033507434518104
-1.276764514154976,2.0416560228768996,6.459752404807213,0.008129778968458389,0.0054744111475287065,-0.008129308170502284,0.4093995687618253,2.4025785408037077
-1.2686347351865175,2.0471304340244285,6.45162309663671,0.008129778968458389,0.0054744111475287065,-0.008129308170502284,0.40347868851337476,2.415407106350114
-1.260504956218059,2.0526048451719574,6.443493788466207,0.008129778968458389,0.0054744111475287065,-0.008129308170502284,0.40366270475919164,2.4197472398747513
-1.2523751772496006,2.0580792563194863,6.435364480295704,0.008129778968458389,0.0054744111475287065,-0.008129308170502284,0.40268564043329214,2.4066000493389668
-1.2442453982811421,2.063553667467015,6.427235172125202,0.008129778968458389,0.0054744111475287065,-0.008129308170502284,0.4022424416248005,2.395571438092293
-1.2361156193126837,2.069028078614544,6.419105863954699,0.008129778968458389,0.0054744111475287065,-0.008129308170502284,0.4066781008568222,2.4088948654352484
-1.2279858403442252,2.074502489762073,6.410976555784196,0.008129778968458389,0.0054744111475287065,-0.008129308170502284,0.3959251204356004,2.4035114666793613
-1.2198560613757667,2.079976900909602,6.4028472476136935,0.008129778968458389,0.0054744111475287065,-0.008129308170502284,0.4033177944526157,2.390853456741365
-1.2117262824073083,2.0854513120571307,6.394717939443191,0.008129778968458389,0.0054744111475287065,-0.008129308170502284,0.3970772749399096,2.3836943769631906
-1.2035965034388498,2.0909257232046596,6.386588631272688,0.008129778968458389,0.0054744111475287065,-0.008129308170502284,0.3979894475327591,2.3882644559813477
-1.1954667244703914,2.0964001343521885,6.378459323102185,0.008129778968458389,0.0054744111475287065,-0.008129308170502284,0.40324396954391134,2.388559078754027
-1.187336945501933,2.1018745454997174,6.370330014931683,0.008129778968458389,0.0054744111475287065,-0.008129308170502284,0.4019525055304378,2.3921366950141074
-1.1792071665334745,2.1073489566472463,6.36220070676118,0.008129778968458389,0.0054744111475287065,-0.008129308170502284,0.40367287611692176,2.3850932053931326
-1.171077387565016,2.112823367794775,6.354071398590677,0.008129778968458389,0.0054744111475287065,-0.008129308170502284,0.40219433099014235,2.3927798181352804
-1.1629476085965575,2.118297778942304,6.345942090420174,0.008129778968458389,0.0054744111475287065,-0.008129308170502284,0.4032655400551463,2.3817499545559944
-1.154817829628099,2.123772190089833,6.337812782249672,0.008129778968458389,0.0054744111475287065,-0.008129308170502284,0.3860693389109381,2.369191632317364
-1.1466880506596406,2.129246601237362,6.329683474079169,0.008129778968458389,0.0054744111475287065,-0.008129308170502284,0.37960783582306085,2.366296565652316
-1.1385582716911822,2.1347210123848908,6.321554165908666,0.008129778968458389,0.0054744111475287065,-0.008129308170502284,0.38258761993963675,2.368812791803911
-1.1304284927227237,2.1401954235324196,6.3134248577381635,0.008129778968458389,0.0054744111475287065,-0.008129308170502284,0.37209065109903416,2.3584377147658038
-1.1222987137542653,2.1456698346799485,6.305295549567661,0.008129778968458389,0.0054744111475287065,-0.008129308170502284,0.36802221939233365,2.34243577254832
-1.1141689347858068,2.1511442458274774,6.297166241397158,0.008129778968458389,0.0054744111475287065,-0.008129308170502284,0.3696519328082765,2.3426251485951552
-1.1060391558173484,2.1566186569750063,6.289036933226655,0.008129778968458389,0.0054744111475287065,-0.008129308170502284,0.3689322141597908,2.3577242871945043
-1.09790937684889,2.162093068122535,6.280907625056153,0.008129778968458389,0.0054744111475287065,-0.008129308170502284,0.3640363829533005,2.3687647520567916
-1.0897795978804314,2.167567479270064,6.27277831688565,0.008129778968458389,0.0054744111475287065,-0.008129308170502284,0.3729933211510182,2.373319566833
-1.081649818911973,2.173041890417593,6.264649008715147,0.008129778968458389,0.0054744111475287065,-0.008129308170502284,0.37333850252582135,2.3808391408663088
-1.0735200399435145,2.178516301565122,6.2565197005446445,0.008129778968458389,0.0054744111475287065,-0.008129308170502284,0.36884445697997914,2.3799234143051837
-1.065390260975056,2.1839907127126508,6.248390392374142,0.008129778968458389,0.0054744111475287065,-0.008129308170502284,0.3704436550434811,2.3896975056810112
-1.0572604820065976,2.1894651238601797,6.240261084203639,0.008129778968458389,0.0054744111475287065,-0.008129308170502284,0.3619363546467389,2.3790779584213606
-1.0491307030381392,2.1949395350077086,6.232131776033136,0.008129778968458389,0.0054744111475287065,-0.008129308170502284,0.36488600316942066,2.3777978786776597
-1.0410009240696807,2.2004139461552374,6.224002467862634,0.008129778968458389,0.0054744111475287065,-0.008129308170502284,0.36367793852936087,2.3865900951514116
-1.0328711451012222,2.2058883573027663,6.215873159692131,0.008129778968458389,0.0054744111475287065,-0.008129308170502284,0.36867285171603775,2.4010883453701584
-1.0247413661327638,2.2113627684502952,6.207743851521628,0.008129778968458389,0.0054744111475287065,-0.008129308170502284,0.37320978131144805,2.4052175197368304
-1.0166115871643053,2.216837179597824,6.199614543351125,0.008129778968458389,0.0054744111475287065,-0.008129308170502284,0.37112896925412964,2.3903781673761237
-1.0084818081958469,2.222311590745353,6.191485235180623,0.008129778968458389,0.0054744111475287065,-0.008129308170502284,0.3682979819807602,2.390497959243439
-1.0003520292273884,2.227786001892882,6.18335592701012,0.008129778968458389,0.0054744111475287065,-0.008129308170502284,0.3696593508323486,2.380258697403647
-0.9922222502589301,2.233260413040411,6.175226618839617,0.008129778968458389,0.0054744111475287065,-0.008129308170502284,0.3654962428074918,2.375208189177337
-0.9840924712904717,2.2387348241879397,6.1670973106691145,0.008129778968458389,0.0054744111475287065,-0.008129308170502284,0.36413646698855107,2.3851487253590973
-0.9759626923220134,2.2442092353354686,6.158968002498612,0.008129778968458389,0.0054744111475287065,-0.008129308170502284,0.3641200149664661,2.390443009308382
-0.967832913353555,2.2496836464829975,6.150838694328109,0.008129778968458389,0.0054744111475287065,-0.008129308170502284,0.3548526127148605,2.3976082849161275
-0.9597031343850967,2.2551580576305263,6.142709386157606,0.008129778968458389,0.0054744111475287065,-0.008129308170502284,0.3560443365530676,2.39391082205768
-0.9515733554166383,2.2606324687780552,6.134580077987104,0.008129778968458389,0.0054744111475287065,-0.008129308170502284,0.3561886711248876,2.4051916022718287
-0.94344357644818,2.266106879925584,6.126450769816601,0.008129778968458389,0.0054744111475287065,-0.008129308170502284,0.3477332512736987,2.406100231380396
-0.9353137974797217,2.271581291073113,6.118321461646098,0.008129778968458389,0.0054744111475287065,-0.008129308170502284,0.34486524727866985,2.4056188950615605
-0.9271840185112633,2.277055702220642,6.110192153475595,0.008129778968458389,0.0054744111475287065,-0.008129308170502284,0.34388007242995017,2.401371044616712
-0.919054239542805,2.282530113368171,6.102062845305093,0.008129778968458389,0.0054744111475287065,-0.008129308170502284,0.3548094301710011,2.3862406732555286
-0.9109244605743466,2.2880045245156997,6.09393353713459,0.008129778968458389,0.0054744111475287065,-0.008129308170502284,0.3528157823909525,2.3721308940513763
-0.9027946816058883,2.2934789356632286,6.085804228964087,0.008129778968458389,0.0054744111475287065,-0.008129308170502284,0.3501733419342353,2.353347682360353
-0.8946649026374299,2.2989533468107575,6.0776749207935845,0.008129778968458389,0.0054744111475287065,-0.008129308170502284,0.3525626239505816,2.353360682657386
-0.8865351236689716,2.3044277579582864,6.069545612623082,0.008129778968458389,0.0054744111475287065,-0.008129308170502284,0.3528173995005178,2.3516665426532026
-0.8784053447005132,2.3099021691058153,6.061416304452579,0.008129778968458389,0.0054744111475287065,-0.008129308170502284,0.34519069475422653,2.330456828954091
-0.8702755657320549,2.315376580253344,6.053286996282076,0.008129778968458389,0.0054744111475287065,-0.008129308170502284,0.3425259366943555,2.3311759572287287
-0.8621457867635965,2.320850991400873,6.045157688111574,0.008129778968458389,0.0054744111475287065,-0.008129308170502284,0.3423019631081299,2.3366615092309244
-0.8540160077951382,2.326325402548402,6.037028379941071,0.008129778968458389,0.0054744111475287065,-0.008129308170502284,0.3444629913238302,2.3446377545005146
-0.8458862288266799,2.331799813695931,6.028899071770568,0.008129778968458389,0.0054744111475287065,-0.008129308170502284,0.337005408934953,2.3494246143821735
-0.8377564498582215,2.3372742248434597,6.020769763600065,0.008129778968458389,0.0054744111475287065,-0.008129308170502284,0.3391931188893868,2.358079420609347
-0.8296266708897632,2.3427486359909886,6.012640455429563,0.008129778968458389,0.0054744111475287065,-0.008129308170502284,0.3416901949083547,2.3638396953294643
-0.8214968919213048,2.3482230471385175,6.00451114725906,0.008129778968458389,0.0054744111475287065,-0.008129308170502284,0.3384316871429537,2.3358920516040085
-0.8133671129528465,2.3536974582860464,5.996381839088557,0.008129778968458389,0.0054744111475287065,-0.008129308170502284,0.33891651368248343,2.3499804907365975
-0.8052373339843881,2.3591718694335753,5.9882525309180545,0.008129778968458389,0.0054744111475287065,-0.008129308170502284,0.3360506690599111,2.3560517384898056
-0.7971075550159298,2.364646280581104,5.980123222747552,0.008129778968458389,0.0054744111475287065,-0.008129308170502284,0.33858172089532895,2.351920065862653
-0.7889777760474714,2.370120691728633,5.971993914577049,0.008129778968458389,0.0054744111475287065,-0.008129308170502284,0.3274549071242904,2.3577915070306945
-0.8571128641510645,2.374631139712369,5.903645931932721,-0.06813508810359303,0.004510447983735948,-0.06834798264432754,0.32809505187991267,2.344793514539862
-0.9252479522546575,2.3791415876961053,5.835297949288393,-0.06813508810359303,0.004510447983735948,-0.06834798264432754,0.3240126701854832,2.336726874284853
-0.9933830403582505,2.3836520356798414,5.766949966644066,-0.06813508810359303,0.004510447983735948,-0.06834798264432754,0.32471196289710524,2.3218179943330197
-1.0615181284618436,2.3881624836635775,5.698601983999738,-0.06813508810359303,0.004510447983735948,-0.06834798264432754,0.32009757482561624,2.3300473148520315
-1.1296532165654365,2.3926729316473136,5.63025400135541,-0.06813508810359303,0.004510447983735948,-0.06834798264432754,0.3200155122140302,2.323068729424472
-1.1977883046690296,2.3971833796310498,5.561906018711082,-0.06813508810359303,0.004510447983735948,-0.06834798264432754,0.31773488332471217,2.321796593149994
-1.2659233927726228,2.401693827614786,5.493558036066754,-0.06813508810359303,0.004510447983735948,-0.06834798264432754,0.3236892371969419,2.3194372697536836
-1.2109457208178813,2.39248303734688,5.478128760370847,0.05497767195474148,-0.00921079026790556,-0.015429275695907315,0.3312872242236338,2.3119089463461475
-1.1559680488631399,2.3832722470789744,5.46269948467494,0.05497767195474148,-0.00921079026790556,-0.015429275695907315,0.32580058064216194,2.3077673100986837
-1.1009903769083984,2.3740614568110687,5.447270208979033,0.05497767195474148,-0.00921079026790556,-0.015429275695907315,0.3269369595501156,2.3035200981415738
-1.046012704953657,2.364850666543163,5.431840933283126,0.05497767195474148,-0.00921079026790556,-0.015429275695907315,0.32358821375967134,2.309294139913819
-0.9910350329989155,2.3556398762752573,5.4164116575872185,0.05497767195474148,-0.00921079026790556,-0.015429275695907315,0.3277474336864141,2.3009193820693135
-0.936057361044174,2.3464290860073516,5.400982381891311,0.05497767195474148,-0.00921079026790556,-0.015429275695907315,0.32579581978800765,2.2991952508777183
-0.8810796890894326,2.337218295739446,5.385553106195404,0.05497767195474148,-0.00921079026790556,-0.015429275695907315,0.314914699267753,2.2927542849750275
-0.8261020171346911,2.32800750547154,5.370123830499497,0.05497767195474148,-0.00921079026790556,-0.015429275695907315,0.3047540799675931,2.268931908801321
-0.7711243451799497,2.3187967152036344,5.35469455480359,0.05497767195474148,-0.00921079026790556,-0.015429275695907315,0.29895613977240765,2.2579674642726055
-0.7161466732252082,2.3095859249357287,5.339265279107683,0.05497767195474148,-0.00921079026790556,-0.015429275695907315,0.29828939773189994,2.260395286048133
-0.6611690012704667,2.300375134667823,5.323836003411776,0.05497767195474148,-0.00921079026790556,-0.015429275695907315,0.2951265802355381,2.247139125411734
-0.6061913293157253,2.2911643443999172,5.308406727715869,0.05497767195474148,-0.00921079026790556,-0.015429275695907315,0.2878371252935779,2.2588099766031955
-0.5512136573609838,2.2819535541320115,5.2929774520199615,0.05497767195474148,-0.00921079026790556,-0.015429275695907315,0.2884278995306286,2.26704040243477
-0.49623598540624236,2.272742763864106,5.277548176324054,0.05497767195474148,-0.00921079026790556,-0.015429275695907315,0.29363996710032697,2.2686124670531354
-0.4412583134515009,2.2635319735962,5.262118900628147,0.05497767195474148,-0.00921079026790556,-0.015429275695907315,0.2935315805538191,2.274220018039692
-0.38628064149675945,2.2543211833282943,5.24668962493224,0.05497767195474148,-0.00921079026790556,-0.015429275695907315,0.29355138809311354,2.2534208495909556
-0.331302969542018,2.2451103930603886,5.231260349236333,0.05497767195474148,-0.00921079026790556,-0.015429275695907315,0.30240244633333707,2.257014529755048
-0.27632529758727653,2.235899602792483,5.215831073540426,0.05497767195474148,-0.00921079026790556,-0.015429275695907315,0.30124564129618037,2.2515775319359173
-0.22134762563253504,2.226688812524577,5.200401797844519,0.05497767195474148,-0.00921079026790556,-0.015429275695907315,0.3017456714768819,2.257019127372198
-0.16636995367779356,2.2174780222566715,5.184972522148612,0.05497767195474148,-0.00921079026790556,-0.015429275695907315,0.29178298413993914,2.2526175816495284
-0.11139228172305207,2.2082672319887657,5.1695432464527045,0.05497767195474148,-0.00921079026790556,-0.015429275695907315,0.2845510373876889,2.2631213375225108
-0.05641460976831059,2.19905644172086,5.154113970756797,0.05497767195474148,-0.00921079026790556,-0.015429275695907315,0.2778924025832573,2.27976744567879
-0.001436937813569114,2.1898456514529543,5.13868469506089,0.05497767195474148,-0.00921079026790556,-0.015429275695907315,0.28211462671297505,2.2848080930260144
0.053540734141172365,2.1806348611850486,5.123255419364983,0.05497767195474148,-0.00921079026790556,-0.015429275695907315,0.2782006853199777,2.2941995804210373
0.10851840609591384,2.171424070917143,5.107826143669076,0.05497767195474148,-0.00921079026790556,-0.015429275695907315,0.2761129636633736,2.303259501914208
0.16349607805065533,2.162213280649237,5.092396867973169,0.05497767195474148,-0.00921079026790556,-0.015429275695907315,0.269726087890217,2.2942310745974916
0.21847375000539682,2.1530024903813314,5.076967592277262,0.05497767195474148,-0.00921079026790556,-0.015429275695907315,0.26186758765595647,2.2779111326554213
0.2734514219601383,2.1437917001134257,5.061538316581355,0.05497767195474148,-0.00921079026790556,-0.015429275695907315,0.26492044000837,2.2742623471266987
0.32842909391487973,2.13458090984552,5.046109040885447,0.05497767195474148,-0.00921079026790556,-0.015429275695907315,0.2773786955629166,2.2892032722582303
0.3834067658696212,2.1253701195776142,5.03067976518954,0.05497767195474148,-0.00921079026790556,-0.015429275695907315,0.28619723358488325,2.2892030985030027
0.43838443782436265,2.1161593293097085,5.015250489493633,0.05497767195474148,-0.00921079026790556,-0.015429275695907315,0.2801104916393982,2.2909908608459
0.4933621097791041,2.106948539041803,4.999821213797726,0.05497767195474148,-0.00921079026790556,-0.015429275695907315,0.273075945740267,2.3148986942177596
0.5483397817338456,2.097737748773897,4.984391938101819,0.05497767195474148,-0.00921079026790556,-0.015429275695907315,0.2685253588558643,2.3066580621844412
0.603317453688587,2.0885269585059913,4.968962662405912,0.05497767195474148,-0.00921079026790556,-0.015429275695907315,0.2745925976023237,2.3009809559163417
0.6582951256433285,2.0793161682380856,4.953533386710005,0.05497767195474148,-0.00921079026790556,-0.015429275695907315,0.2710713338071347,2.307318041479952
0.7132727975980699,2.07010537797018,4.9381041110140975,0.05497767195474148,-0.00921079026790556,-0.015429275695907315,0.2718448806709446,2.319533317718402
0.7682504695528114,2.060894587702274,4.92267483531819,0.05497767195474148,-0.00921079026790556,-0.015429275695907315,0.2689465670778491,2.3272195576426795
0.8232281415075529,2.0516837974343685,4.907245559622283,0.05497767195474148,-0.00921079026790556,-0.015429275695907315,0.26602848860332373,2.3114234900301933
0.8782058134622943,2.0424730071664627,4.891816283926376,0.05497767195474148,-0.00921079026790556,-0.015429275695907315,0.2628344081629134,2.3179911554472645
0.9331834854170358,2.033262216898557,4.876387008230469,0.05497767195474148,-0.00921079026790556,-0.015429275695907315,0.2628344081629134,2.32383060613175
0.9881611573717772,2.0240514266306513,4.860957732534562,0.05497767195474148,-0.00921079026790556,-0.015429275695907315,0.2628344081629134,2.3067279781078884
1.0431388293265187,2.0148406363627456,4.845528456838655,0.05497767195474148,-0.00921079026790556,-0.015429275695907315,0.2628344081629134,2.2878608091537647
1.0564977658862065,2.001946881728858,4.884202775632903,0.013358936559687744,-0.012893754633887464,0.03867431879424798,0.2628344081629134,2.294606740708307
1.0698567024458943,1.9890531270949707,4.922877094427151,0.013358936559687744,-0.012893754633887464,0.03867431879424798,0.2628344081629134,2.2874224327986945
1.083215639005582,1.9761593724610833,4.961551413221399,0.013358936559687744,-0.012893754633887464,0.03867431879424798,0.2628344081629134,2.2956517987292218
1.0965745755652698,1.9632656178271959,5.000225732015648,0.013358936559687744,-0.012893754633887464,0.03867431879424798,0.2628344081629134,2.2924938165853925
1.1099335121249576,1.9503718631933085,5.038900050809896,0.013358936559687744,-0.012893754633887464,0.03867431879424798,0.25374113384296726,2.2925582546527203
1.1232924486846454,1.937478108559421,5.077574369604144,0.013358936559687744,-0.012893754633887464,0.03867431879424798,0.2570918874564215,2.298279646582812
1.1366513852443332,1.9245843539255336,5.116248688398392,0.013358936559687744,-0.012893754633887464,0.03867431879424798,0.2570918874564215,2.3050603577218887
1.150010321804021,1.9116905992916462,5.15492300719264,0.013358936559687744,-0.012893754633887464,0.03867431879424798,0.2570918874564215,2.2791812495330883
1.1633692583637087,1.8987968446577588,5.193597325986889,0.013358936559687744,-0.012893754633887464,0.03867431879424798,0.2570918874564215,2.2879511438273434
1.1767281949233965,1.8859030900238714,5.232271644781137,0.013358936559687744,-0.012893754633887464,0.03867431879424798,0.24907070236199494,2.28078597342901
1.1900871314830843,1.873009335389984,5.270945963575385,0.013358936559687744,-0.012893754633887464,0.03867431879424798,0.24907070236199494,2.2823352463730537
1.203446068042772,1.8601155807560965,5.309620282369633,0.013358936559687744,-0.012893754633887464,0.03867431879424798,0.24907070236199494,2.2919763599193193
1.2168050046024599,1.847221826122209,5.3482946011638814,0.013358936559687744,-0.012893754633887464,0.03867431879424798,0.2412363227892453,2.2918249477472377
1.2301639411621477,1.8343280714883217,5.38696891995813,0.013358936559687744,-0.012893754633887464,0.03867431879424798,0.2412363227892453,2.2893568722554343
1.2435228777218355,1.8214343168544342,5.425643238752378,0.013358936559687744,-0.012893754633887464,0.03867431879424798,0.2412363227892453,2.2873185080158867
1.2568818142815232,1.8085405622205468,5.464317557546626,0.013358936559687744,-0.012893754633887464,0.03867431879424798,0.2412363227892453,2.2692739207109383
1.270240750841211,1.7956468075866594,5.502991876340874,0.013358936559687744,-0.012893754633887464,0.03867431879424798,0.2412363227892453,2.2661907138703774
1.2835996874008988,1.782753052952772,5.5416661951351225,0.013358936559687744,-0.012893754633887464,0.03867431879424798,0.2412363227892453,2.2540191718972005
1.2969586239605866,1.7698592983188846,5.580340513929371,0.013358936559687744,-0.012893754633887464,0.03867431879424798,0.2412363227892453,2.2536482281501886
1.3103175605202744,1.7569655436849971,5.619014832723619,0.013358936559687744,-0.012893754633887464,0.03867431879424798,0.2412363227892453,2.243037748707851
1.3236764970799622,1.7440717890511097,5.657689151517867,0.013358936559687744,-0.012893754633887464,0.03867431879424798,0.2412363227892453,2.250961243466251
1.33703543363965,1.7311780344172223,5.696363470312115,0.013358936559687744,-0.012893754633887464,0.03867431879424798,0.2412363227892453,2.241932649551636
1.3503943701993377,1.7182842797833349,5.7350377891063635,0.013358936559687744,-0.012893754633887464,0.03867431879424798,0.2412363227892453,2.2476979530314503
1.3637533067590255,1.7053905251494474,5.773712107900612,0.013358936559687744,-0.012893754633887464,0.03867431879424798,0.2421336040770404,2.252681132280371
1.3771122433187133,1.69249677051556,5.81238642669486,0.013358936559687744,-0.012893754633887464,0.03867431879424798,0.2283855740984145,2.249696530406839
1.390471179878401,1.6796030158816726,5.851060745489108,0.013358936559687744,-0.012893754633887464,0.03867431879424798,0.22689228812105156,2.270449497588312
1.4038301164380889,1.6667092612477852,5.889735064283356,0.013358936559687744,-0.012893754633887464,0.03867431879424798,0.22903103195423766,2.257060888136507
1.4171890529977766,1.6538155066138978,5.928409383077605,0.013358936559687744,-0.012893754633887464,0.03867431879424798,0.23166633350372345,2.274907890333585
1.4305479895574644,1.6409217519800103,5.967083701871853,0.013358936559687744,-0.012893754633887464,0.03867431879424798,0.22818194294173308,2.3007501198531117
1.4439069261171522,1.628027997346123,6.005758020666101,0.013358936559687744,-0.012893754633887464,0.03867431879424798,0.231936918990012,2.2995478756619727
1.45726586267684,1.6151342427122355,6.044432339460349,0.013358936559687744,-0.012893754633887464,0.03867431879424798,0.23007068742767778,2.301279332665393
1.4706247992365278,1.602240488078348,6.083106658254597,0.013358936559687744,-0.012893754633887464,0.03867431879424798,0.23075661835151096,2.293946289564095
1.4839837357962156,1.5893467334444606,6.121780977048846,0.013358936559687744,-0.012893754633887464,0.03867431879424798,0.23151613956317482,2.3062774318619508
1.4973426723559033,1.5764529788105732,6.160455295843094,0.013358936559687744,-0.012893754633887464,0.03867431879424798,0.23006967197468833,2.3010905947211757
1.5107016089155911,1.5635592241766858,6.199129614637342,0.013358936559687744,-0.012893754633887464,0.03867431879424798,0.2272550285622285,2.3099377171577236
1.524060545475279,1.5506654695427984,6.23780393343159,0.013358936559687744,-0.012893754633887464,0.03867431879424798,0.22550736573769437,2.3044977874297277
1.5374194820349667,1.537771714908911,6.276478252225838,0.013358936559687744,-0.012893754633887464,0.03867431879424798,0.22458739522373974,2.3040106690684694
1.5507784185946545,1.5248779602750235,6.315152571020087,0.013358936559687744,-0.012893754633887464,0.03867431879424798,0.2199437538918691,2.2901791788229358
1.5641373551543423,1.5119842056411361,6.353826889814335,0.013358936559687744,-0.012893754633887464,0.03867431879424798,0.213921263972882,2.277561609364929
1.57749629171403,1.4990904510072487,6.392501208608583,0.013358936559687744,-0.012893754633887464,0.03867431879424798,0.21131308137009483,2.273784339972502
1.5908552282737178,1.4861966963733613,6.431175527402831,0.013358936559687744,-0.012893754633887464,0.03867431879424798,0.20644955910374282,2.246926533941067
1.6042141648334056,1.4733029417394738,6.4698498461970795,0.013358936559687744,-0.012893754633887464,0.03867431879424798,0.2086200053373768,2.2525102573494955
1.6175731013930934,1.4604091871055864,6.508524164991328,0.013358936559687744,-0.012893754633887464,0.03867431879424798,0.2083613560381329,2.2526969411419384
1.6309320379527812,1.447515432471699,6.547198483785576,0.013358936559687744,-0.012893754633887464,0.03867431879424798,0.20817759360793114,2.2663596184905477
1.644290974512469,1.4346216778378116,6.585872802579824,0.013358936559687744,-0.012893754633887464,0.03867431879424798,0.210681185246419,2.263072642931737
1.6576499110721568,1.4217279232039242,6.624547121374072,0.013358936559687744,-0.012893754633887464,0.03867431879424798,0.2160009117956461,2.2456508001768585
1.6710088476318445,1.4088341685700367,6.6632214401683205,0.013358936559687744,-0.012893754633887464,0.03867431879424798,0.21408384574897343,2.2487268844511643
1.6843677841915323,1.3959404139361493,6.701895758962569,0.013358936559687744,-0.012893754633887464,0.03867431879424798,0.21790387009149353,2.24901841661567
1.69772672075122,1.383046659302262,6.740570077756817,0.013358936559687744,-0.012893754633887464,0.03867431879424798,0.22081006043527643,2.2454694611454067
1.711085657310908,1.3701529046683745,6.779244396551065,0.013358936559687744,-0.012893754633887464,0.03867431879424798,0.21481158813720974,2.231806354634017
1.7244445938705957,1.357259150034487,6.817918715345313,0.013358936559687744,-0.012893754633887464,0.03867431879424798,0.21286287733509318,2.225808844982197
1.7378035304302835,1.3443653954005996,6.856593034139562,0.013358936559687744,-0.012893754633887464,0.03867431879424798,0.20904891840734469,2.237750865582658
1.7511624669899712,1.3314716407667122,6.89526735293381,0.013358936559687744,-0.012893754633887464,0.03867431879424798,0.20717945739104224,2.232156893742144
1.764521403549659,1.3185778861328248,6.933941671728058,0.013358936559687744,-0.012893754633887464,0.03867431879424798,0.20936952753901042,2.2309326399356344
1.7778803401093468,1.3056841314989374,6.972615990522306,0.013358936559687744,-0.012893754633887464,0.03867431879424798,0.2043305018276646,2.2410325775648188
1.7912392766690346,1.29279037686505,7.011290309316554,0.013358936559687744,-0.012893754633887464,0.03867431879424798,0.2055442031716994,2.221617181961168
1.8045982132287224,1.2798966222311625,7.049964628110803,0.013358936559687744,-0.012893754633887464,0.03867431879424798,0.20489651086799124,2.2432966628874653
1.8179571497884102,1.267002867597275,7.088638946905051,0.013358936559687744,-0.012893754633887464,0.03867431879424798,0.20004267698684525,2.2341874600518636
1.831316086348098,1.2541091129633877,7.127313265699299,0.013358936559687744,-0.012893754633887464,0.03867431879424798,0.20401747467520823,2.2315121300700853
1.8446750229077857,1.2412153583295003,7.165987584493547,0.013358936559687744,-0.012893754633887464,0.03867431879424798,0.20071534126051183,2.212835626111429
1.8580339594674735,1.2283216036956128,7.204661903287795,0.013358936559687744,-0.012893754633887464,0.03867431879424798,0.19910527143404816,2.2008887231615546
1.8713928960271613,1.2154278490617254,7.243336222082044,0.013358936559687744,-0.012893754633887464,0.03867431879424798,0.19810293922556152,2.194085605470467
1.884751832586849,1.202534094427838,7.282010540876292,0.013358936559687744,-0.012893754633887464,0.03867431879424798,0.19871044924065576,2.2030304726194982
1.8981107691465369,1.1896403397939506,7.32068485967054,0.013358936559687744,-0.012893754633887464,0.03867431879424798,0.20227412020905142,2.2005174924842152
1.9114697057062247,1.1767465851600631,7.359359178464788,0.013358936559687744,-0.012893754633887464,0.03867431879424798,0.19341209223941022,2.19846752373503
1.9248286422659124,1.1638528305261757,7.3980334972590365,0.013358936559687744,-0.012893754633887464,0.03867431879424798,0.20402996099796808,2.197143426838411
1.9381875788256002,1.1509590758922883,7.436707816053285,0.013358936559687744,-0.012893754633887464,0.03867431879424798,0.2115779407972875,2.198526966270857
1.951546515385288,1.1380653212584009,7.475382134847533,0.013358936559687744,-0.012893754633887464,0.03867431879424798,0.20535024303077207,2.205147183581158
1.9649054519449758,1.1251715666245135,7.514056453641781,0.013358936559687744,-0.012893754633887464,0.03867431879424798,0.21261066450520708,2.208759111111532
1.9782643885046636,1.112277811990626,7.552730772436029,0.013358936559687744,-0.012893754633887464,0.03867431879424798,0.22147245102988578,2.2014512759876204
1.9916233250643514,1.0993840573567386,7.5914050912302775,0.013358936559687744,-0.012893754633887464,0.03867431879424798,0.2230725642987961,2.1765728233672466
2.004982261624039,1.0864903027228512,7.630079410024526,0.013358936559687744,-0.012893754633887464,0.03867431879424798,0.22232537937482247,2.173383138082531
2.0183411981837267,1.0735965480889638,7.668753728818774,0.013358936559687744,-0.012893754633887464,0.03867431879424798,0.2137882439417024,2.179341373296187
2.0317001347434145,1.0607027934550763,7.707428047613022,0.013358936559687744,-0.012893754633887464,0.03867431879424798,0.20861158143834327,2.1898021644919963
2.0450590713031023,1.047809038821189,7.74610236640727,0.013358936559687744,-0.012893754633887464,0.03867431879424798,0.2154736062782187,2.185696731287222
2.05841800786279,1.0349152841873015,7.7847766852015186,0.013358936559687744,-0.012893754633887464,0.03867431879424798,0.2043162802899734,2.1971450862877346
2.071776944422478,1.022021529553414,7.823451003995767,0.013358936559687744,-0.012893754633887464,0.03867431879424798,0.2034939732573401,2.194898627921608
2.0851358809821656,1.0091277749195267,7.862125322790015,0.013358936559687744,-0.012893754633887464,0.03867431879424798,0.2037187619162284,2.206639616343606
2.0984948175418534,0.9962340202856392,7.900799641584263,0.013358936559687744,-0.012893754633887464,0.03867431879424798,0.1876224546312874,2.2047487986324557
